-0.05
-0.02
0
-0.015
-0.015
-0.005
0.005
0.04
0.035
0.02
0.01
0.01
0.025
0.03
0.03
0
-0.04
-0.025
-0.04
-0.015
-0.055
-0.07
-0.095
-0.1
-0.095
-0.07
-0.08
-0.095
-0.115
-0.12
-0.11
-0.095
-0.12
-0.135
-0.145
-0.14
-0.14
-0.125
-0.135
-0.135
-0.155
-0.15
-0.125
-0.105
-0.1
-0.105
-0.1
-0.09
-0.055
-0.03
-0.035
-0.04
-0.04
-0.025
-0.025
-0.01
-0.005
-0.025
-0.04
-0.02
-0.02
-0.02
-0.03
-0.065
-0.08
-0.09
-0.08
-0.07
-0.065
-0.095
-0.115
-0.11
-0.095
-0.065
-0.07
-0.085
-0.085
-0.07
-0.055
-0.035
-0.04
-0.04
-0.055
-0.055
-0.035
-0.025
-0.025
-0.045
-0.055
-0.055
-0.04
-0.02
-0.035
-0.06
-0.075
-0.08
-0.065
-0.055
-0.055
-0.065
-0.075
-0.08
-0.06
-0.035
-0.05
-0.065
-0.075
-0.05
-0.06
-0.03
-0.05
-0.05
-0.07
-0.085
-0.07
-0.06
-0.085
-0.105
-0.11
-0.09
-0.075
-0.055
-0.05
-0.05
-0.06
-0.035
-0.02
-0.01
-0.03
-0.03
-0.045
-0.05
-0.07
-0.105
-0.14
-0.21
-0.295
-0.345
-0.37
-0.415
-0.435
-0.485
-0.555
-0.605
-0.6
-0.585
-0.55
-0.5
-0.475
-0.4
-0.315
-0.24
-0.18
-0.175
-0.165
-0.13
-0.1
-0.07
-0.065
-0.065
-0.075
-0.065
-0.04
-0.025
-0.04
-0.055
-0.085
-0.095
-0.1
-0.08
-0.095
-0.085
-0.095
-0.105
-0.075
-0.06
-0.06
-0.06
-0.065
-0.045
-0.01
0.005
0
0.005
-0.01
0.005
0.03
0.03
0.04
0.03
0.02
0.03
0.035
0.06
0.05
0.03
0.03
0.04
0.06
0.085
0.085
0.065
0.055
0.055
0.065
0.075
0.06
0.055
0.03
0.02
0.04
0.045
0.04
0.005
-0.025
-0.01
-0.01
0.02
0
-0.02
-0.03
-0.025
0
0.02
0.005
0.005
0.015
-0.005
0.025
0.045
0.05
0.045
0.035
0.05
0.07
0.085
0.075
0.065
0.055
0.06
0.05
0.08
0.055
0.05
0.045
0.045
0.065
0.06
0.055
0.025
0.025
0.025
0.02
0.04
0.02
-0.02
-0.035
-0.04
-0.065
-0.07
-0.12
-0.185
-0.235
-0.27
-0.295
-0.335
-0.4
-0.49
-0.6
-0.72
-0.815
-0.845
-0.885
-0.915
-0.935
-0.96
-0.945
-0.95
-0.95
-0.94
-0.91
-0.87
-0.805
-0.715
-0.655
-0.635
-0.605
-0.57
-0.52
-0.45
-0.425
-0.38
-0.36
-0.305
-0.245
-0.19
-0.135
-0.095
-0.055
-0.005
0.055
0.095
0.14
0.155
0.165
0.185
0.225
0.24
0.265
0.25
0.25
0.28
0.285
0.32
0.32
0.31
0.3
0.315
0.32
0.335
0.315
0.285
0.255
0.24
0.255
0.25
0.235
0.205
0.185
0.165
0.21
0.225
0.23
0.235
0.235
0.25
0.285
0.32
0.31
0.32
0.305
0.32
0.35
0.375
0.375
0.36
0.39
0.38
0.405
0.42
0.42
0.395
0.39
0.39
0.39
0.395
0.39
0.355
0.335
0.32
0.33
0.345
0.315
0.285
0.28
0.255
0.265
0.27
0.26
0.225
0.22
0.195
0.205
0.22
0.2
0.195
0.21
0.24
0.3
0.315
0.305
0.215
0.135
0.035
-0.085
-0.185
-0.28
-0.39
-0.465
-0.545
-0.62
-0.655
-0.685
-0.715
-0.745
-0.735
-0.705
-0.645
-0.61
-0.605
-0.565
-0.51
-0.445
-0.39
-0.35
-0.32
-0.27
-0.225
-0.165
-0.12
-0.095
-0.05
-0.01
0.025
0.075
0.115
0.14
0.16
0.15
0.165
0.2
0.22
0.21
0.21
0.2
0.215
0.225
0.24
0.21
0.19
0.185
0.18
0.2
0.2
0.17
0.145
0.1
0.075
0.075
0.07
0.04
-0.005
-0.035
-0.06
-0.045
-0.035
-0.055
-0.075
-0.055
-0.045
-0.035
0.01
0.015
0.02
0.035
0.065
0.095
0.14
0.18
0.175
0.195
0.215
0.255
0.29
0.3
0.315
0.305
0.34
0.37
0.395
0.395
0.395
0.39
0.4
0.43
0.435
0.425
0.42
0.405
0.39
0.41
0.415
0.405
0.38
0.365
0.355
0.33
0.33
0.305
0.285
0.24
0.225
0.2
0.175
0.15
0.08
0.035
0.005
-0.015
-0.035
-0.08
-0.105
-0.135
-0.14
-0.13
-0.11
-0.115
-0.115
-0.12
-0.085
-0.055
-0.025
-0.02
-0.005
-0.005
0.015
0.055
0.065
0.1
0.11
0.14
0.175
0.235
0.275
0.27
0.27
0.25
0.195
0.175
0.14
0.045
-0.045
-0.14
-0.185
-0.2
-0.19
-0.23
-0.305
-0.375
-0.415
-0.405
-0.38
-0.37
-0.315
-0.255
-0.19
-0.115
-0.04
0
0.03
0.05
0.07
0.08
0.065
0.03
-0.035
-0.07
-0.095
-0.085
-0.085
-0.075
-0.09
-0.09
-0.065
-0.04
-0.01
-0.005
0
0.005
0.025
0.06
0.085
0.085
0.095
0.11
0.14
0.17
0.19
0.21
0.215
0.205
0.24
0.275
0.29
0.305
0.295
0.295
0.315
0.35
0.38
0.38
0.375
0.375
0.39
0.395
0.42
0.41
0.395
0.395
0.39
0.405
0.415
0.405
0.39
0.385
0.385
0.395
0.405
0.405
0.37
0.36
0.36
0.35
0.355
0.34
0.275
0.215
0.16
0.135
0.09
0.055
-0.005
-0.025
-0.04
-0.03
-0.03
-0.035
-0.05
-0.065
-0.04
-0.015
0.005
0.015
0.005
0.005
0.03
0.055
0.07
0.085
0.085
0.09
0.105
0.135
0.155
0.155
0.16
0.155
0.175
0.205
0.23
0.235
0.225
0.21
0.225
0.26
0.27
0.275
0.265
0.26
0.275
0.28
0.3
0.29
0.28
0.275
0.285
0.305
0.31
0.31
0.3
0.28
0.29
0.305
0.32
0.315
0.3
0.285
0.265
0.265
0.255
0.245
0.2
0.185
0.165
0.155
0.165
0.125
0.07
0.025
-0.005
0
0
-0.03
-0.055
-0.05
-0.045
-0.015
0.01
0
0
0
0.005
0.025
0.055
0.05
0.035
0.04
0.045
0.075
0.085
0.11
0.11
0.085
0.1
0.14
0.15
0.15
0.125
0.135
0.155
0.18
0.19
0.195
0.18
0.19
0.2
0.225
0.245
0.26
0.245
0.25
0.265
0.295
0.29
0.295
0.26
0.24
0.24
0.245
0.26
0.245
0.205
0.17
0.16
0.13
0.105
0.055
0
-0.05
-0.045
-0.04
-0.025
-0.03
-0.055
-0.05
-0.03
0
0.035
0.04
0.045
0.035
0.08
0.095
0.11
0.125
0.115
0.13
0.135
0.15
0.17
0.17
0.16
0.15
0.17
0.185
0.215
0.21
0.205
0.195
0.205
0.225
0.25
0.245
0.255
0.255
0.275
0.305
0.335
0.34
0.33
0.33
0.35
0.38
0.41
0.43
0.435
0.42
0.4
0.375
0.345
0.27
0.19
0.09
-0.01
-0.09
-0.18
-0.24
-0.295
-0.36
-0.425
-0.5
-0.575
-0.66
-0.685
-0.67
-0.635
-0.565
-0.485
-0.41
-0.345
-0.26
-0.185
-0.095
-0.035
-0.005
-0.01
0.015
0.045
0.08
0.105
0.13
0.125
0.15
0.17
0.185
0.22
0.23
0.22
0.225
0.26
0.29
0.33
0.315
0.31
0.325
0.35
0.365
0.39
0.395
0.375
0.38
0.38
0.38
0.385
0.395
0.37
0.35
0.355
0.36
0.36
0.33
0.26
0.215
0.155
0.125
0.09
0.07
0.025
0.015
0.015
0.03
0.04
0.045
0.03
0.035
0.05
0.07
0.085
0.09
0.08
0.095
0.125
0.135
0.16
0.16
0.175
0.17
0.21
0.24
0.27
0.29
0.3
0.31
0.315
0.345
0.36
0.365
0.37
0.365
0.345
0.37
0.39
0.38
0.36
0.345
0.35
0.36
0.365
0.355
0.32
0.315
0.285
0.28
0.275
0.26
0.21
0.19
0.16
0.14
0.13
0.095
0.055
0.01
0.01
0.005
0.03
0.015
-0.005
0.005
0.01
0.015
0.04
0.055
0.075
0.075
0.075
0.105
0.125
0.135
0.15
0.15
0.175
0.205
0.24
0.245
0.245
0.26
0.265
0.29
0.305
0.315
0.305
0.3
0.295
0.33
0.335
0.335
0.31
0.29
0.3
0.305
0.305
0.29
0.27
0.25
0.24
0.245
0.235
0.195
0.16
0.13
0.115
0.095
0.09
0.07
0.025
0.015
0.005
0.01
0.02
0.015
-0.005
0
-0.01
0
0.03
0.02
0.005
-0.005
0.025
0.035
0.065
0.07
0.065
0.05
0.07
0.085
0.11
0.115
0.09
0.085
0.115
0.115
0.135
0.155
0.145
0.145
0.16
0.19
0.2
0.21
0.185
0.19
0.205
0.22
0.235
0.23
0.225
0.215
0.22
0.23
0.255
0.26
0.25
0.245
0.255
0.265
0.265
0.245
0.215
0.2
0.185
0.195
0.2
0.165
0.13
0.105
0.1
0.095
0.105
0.11
0.075
0.065
0.06
0.08
0.11
0.105
0.1
0.1
0.095
0.13
0.155
0.15
0.145
0.13
0.145
0.16
0.2
0.195
0.175
0.19
0.185
0.21
0.215
0.205
0.195
0.185
0.185
0.195
0.21
0.215
0.17
0.165
0.175
0.195
0.22
0.195
0.2
0.175
0.175
0.185
0.195
0.19
0.175
0.165
0.155
0.17
0.165
0.13
0.1
0.07
0.06
0.06
0.055
0.03
0.005
-0.015
-0.015
0.01
0.02
0.01
0.005
0.01
0.01
0.04
0.05
0.05
0.05
0.045
0.07
0.1
0.115
0.13
0.135
0.13
0.155
0.175
0.19
0.185
0.18
0.2
0.2
0.21
0.23
0.225
0.215
0.22
0.225
0.255
0.29
0.265
0.265
0.27
0.305
0.325
0.335
0.31
0.26
0.225
0.185
0.135
0.07
-0.03
-0.13
-0.205
-0.25
-0.28
-0.33
-0.43
-0.52
-0.57
-0.56
-0.52
-0.46
-0.435
-0.41
-0.38
-0.305
-0.23
-0.17
-0.15
-0.14
-0.12
-0.1
-0.07
-0.04
-0.02
-0.01
0
0.01
0.03
0.06
0.055
0.055
0.07
0.085
0.12
0.13
0.13
0.115
0.105
0.115
0.125
0.15
0.145
0.14
0.145
0.155
0.175
0.2
0.195
0.195
0.195
0.215
0.24
0.275
0.27
0.26
0.255
0.255
0.27
0.265
0.26
0.23
0.2
0.215
0.22
0.22
0.21
0.205
0.19
0.21
0.21
0.21
0.21
0.185
0.18
0.175
0.185
0.215
0.21
0.175
0.17
0.17
0.19
0.205
0.195
0.185
0.18
0.19
0.195
0.215
0.2
0.195
0.185
0.18
0.19
0.205
0.195
0.18
0.18
0.18
0.21
0.225
0.205
0.19
0.18
0.18
0.2
0.21
0.195
0.185
0.155
0.155
0.16
0.165
0.14
0.105
0.08
0.055
0.045
0.01
-0.03
-0.06
-0.09
-0.09
-0.095
-0.09
-0.09
-0.095
-0.09
-0.085
-0.04
-0.025
-0.03
-0.03
-0.025
-0.025
0.01
0.035
0.035
0.04
0.045
0.07
0.085
0.105
0.1
0.095
0.1
0.11
0.125
0.145
0.135
0.115
0.115
0.13
0.15
0.165
0.155
0.155
0.155
0.155
0.16
0.195
0.175
0.165
0.14
0.14
0.16
0.16
0.12
0.1
0.07
0.055
0.07
0.07
0.045
0.025
0.01
0.015
0.055
0.075
0.09
0.075
0.06
0.065
0.065
0.025
-0.035
-0.125
-0.215
-0.305
-0.415
-0.475
-0.53
-0.575
-0.61
-0.63
-0.66
-0.705
-0.715
-0.72
-0.695
-0.64
-0.555
-0.465
-0.385
-0.32
-0.245
-0.165
-0.065
0
0.035
0.05
0.05
0.065
0.12
0.125
0.125
0.11
0.095
0.09
0.115
0.11
0.095
0.055
0.025
-0.005
-0.025
-0.03
-0.055
-0.085
-0.1
-0.105
-0.085
-0.07
-0.075
-0.07
-0.09
-0.08
-0.065
-0.05
-0.04
-0.04
-0.04
-0.03
-0.01
0.01
0.01
0.005
0.03
0.045
0.07
0.1
0.11
0.115
0.12
0.125
0.155
0.17
0.16
0.135
0.16
0.175
0.21
0.225
0.225
0.195
0.18
0.195
0.19
0.205
0.185
0.155
0.13
0.13
0.14
0.115
0.085
0.035
0.025
0
0
-0.005
-0.01
-0.04
-0.05
-0.05
-0.02
0
-0.01
-0.015
-0.025
0
0.01
0.04
0.05
0.035
0.045
0.05
0.085
0.095
0.09
0.065
0.065
0.095
0.11
0.12
0.125
0.115
0.115
0.13
0.145
0.17
0.17
0.16
0.155
0.185
0.205
0.215
0.21
0.195
0.175
0.185
0.175
0.185
0.165
0.135
0.11
0.09
0.105
0.105
0.075
0.05
0.03
0.03
0.025
0
-0.015
-0.06
-0.085
-0.08
-0.06
-0.065
-0.08
-0.085
-0.085
-0.065
-0.045
-0.035
-0.02
-0.02
-0.005
-0.01
0.025
0.055
0.045
0.045
0.03
0.055
0.08
0.095
0.095
0.105
0.09
0.105
0.14
0.14
0.14
0.14
0.125
0.14
0.16
0.16
0.15
0.125
0.12
0.11
0.095
0.09
0.075
0.03
0
-0.025
-0.01
-0.02
-0.025
-0.065
-0.07
-0.065
-0.045
-0.06
-0.065
-0.075
-0.1
-0.095
-0.08
-0.08
-0.11
-0.12
-0.13
-0.12
-0.11
-0.085
-0.1
-0.115
-0.12
-0.115
-0.095
-0.085
-0.08
-0.085
-0.065
-0.05
-0.015
0.01
0.02
0.01
0.025
0.06
0.085
0.12
0.12
0.12
0.125
0.125
0.15
0.18
0.165
0.16
0.15
0.16
0.175
0.18
0.155
0.135
0.1
0.065
0.06
0.035
0
-0.035
-0.075
-0.065
-0.045
-0.045
-0.045
-0.065
-0.075
-0.07
-0.04
-0.045
-0.035
-0.06
-0.07
-0.05
-0.03
-0.03
-0.03
-0.035
-0.055
-0.055
-0.03
-0.005
-0.015
-0.045
-0.06
-0.055
-0.025
-0.01
-0.015
-0.02
-0.035
-0.025
0.005
0.02
0.015
0.005
0.01
0.025
0.035
0.055
0.045
0.035
0.01
0.02
0.015
0.035
0.02
-0.015
-0.05
-0.035
-0.045
-0.035
-0.02
-0.03
-0.02
0.015
0.045
0.065
0.07
0.075
0.075
0.095
0.115
0.115
0.09
0.045
-0.025
-0.095
-0.175
-0.25
-0.35
-0.44
-0.52
-0.53
-0.515
-0.53
-0.56
-0.63
-0.7
-0.72
-0.71
-0.68
-0.63
-0.59
-0.5
-0.4
-0.285
-0.195
-0.125
-0.075
-0.025
-0.005
0.03
0.06
0.06
0.06
0.06
0.075
0.085
0.095
0.055
0.035
0
-0.015
-0.025
-0.01
-0.03
-0.055
-0.05
-0.04
-0.015
-0.005
-0.01
-0.015
-0.02
0.015
0.045
0.085
0.095
0.105
0.125
0.155
0.19
0.195
0.205
0.195
0.205
0.23
0.23
0.24
0.24
0.24
0.235
0.23
0.26
0.265
0.275
0.275
0.265
0.265
0.285
0.285
0.275
0.26
0.25
0.245
0.27
0.29
0.28
0.28
0.255
0.265
0.27
0.265
0.245
0.21
0.18
0.175
0.155
0.15
0.115
0.06
0.03
0.015
0.035
0.06
0.055
0.04
0.035
0.045
0.05
0.085
0.08
0.065
0.075
0.07
0.095
0.085
0.08
0.05
0.045
0.06
0.085
0.105
0.1
0.105
0.12
0.125
0.155
0.175
0.175
0.17
0.185
0.185
0.23
0.245
0.24
0.25
0.245
0.25
0.26
0.255
0.245
0.235
0.21
0.215
0.225
0.235
0.19
0.17
0.15
0.16
0.165
0.16
0.135
0.11
0.095
0.105
0.11
0.12
0.125
0.11
0.1
0.12
0.13
0.14
0.13
0.115
0.095
0.1
0.115
0.105
0.095
0.065
0.055
0.06
0.075
0.095
0.07
0.07
0.06
0.09
0.12
0.145
0.135
0.14
0.145
0.165
0.2
0.24
0.26
0.28
0.26
0.245
0.23
0.18
0.12
0.03
-0.06
-0.14
-0.18
-0.205
-0.29
-0.395
-0.49
-0.555
-0.545
-0.495
-0.47
-0.42
-0.36
-0.26
-0.16
-0.11
-0.05
-0.04
-0.035
-0.01
0
0.01
0.005
0
0
0.03
0.03
0.06
0.06
0.04
0.04
0.065
0.065
0.08
0.07
0.07
0.07
0.09
0.11
0.14
0.11
0.125
0.115
0.13
0.145
0.155
0.14
0.125
0.11
0.13
0.14
0.14
0.12
0.105
0.1
0.11
0.105
0.11
0.11
0.105
0.085
0.11
0.11
0.115
0.1
0.085
0.08
0.09
0.115
0.12
0.135
0.12
0.105
0.12
0.135
0.14
0.12
0.12
0.105
0.12
0.125
0.125
0.135
0.12
0.11
0.12
0.155
0.145
0.125
0.105
0.12
0.105
0.105
0.12
0.11
0.09
0.075
0.045
0.045
0.02
0.005
-0.035
-0.055
-0.055
-0.035
-0.04
-0.05
-0.07
-0.08
-0.07
-0.05
-0.045
-0.06
-0.065
-0.09
-0.07
-0.08
-0.055
-0.065
-0.08
-0.08
-0.055
-0.055
-0.015
-0.025
-0.03
-0.02
0
0.035
0.03
0.03
0.035
0.03
0.04
0.06
0.065
0.065
0.07
0.05
0.055
0.07
0.09
0.095
0.085
0.075
0.095
0.11
0.095
0.105
0.08
0.08
0.085
0.09
0.085
0.07
0.05
0.02
0
-0.02
-0.025
-0.045
-0.055
-0.05
-0.055
-0.06
-0.05
-0.065
-0.095
-0.1
-0.095
-0.065
-0.075
-0.075
-0.095
-0.105
-0.08
-0.075
-0.055
-0.06
-0.07
-0.065
-0.06
-0.045
-0.05
-0.055
-0.06
-0.07
-0.055
-0.025
-0.005
-0.01
-0.02
-0.015
0.015
0.035
0.055
0.045
0.05
0.06
0.055
0.075
0.09
0.075
0.055
0.055
0.05
0.065
0.045
0.025
0.005
-0.03
-0.035
-0.035
-0.035
-0.06
-0.07
-0.095
-0.09
-0.065
-0.075
-0.075
-0.075
-0.095
-0.06
-0.01
0
0.02
0.025
0.02
0.05
0.105
0.145
0.14
0.125
0.095
0.08
0.055
0
-0.09
-0.185
-0.23
-0.265
-0.31
-0.375
-0.47
-0.51
-0.515
-0.47
-0.39
-0.33
-0.27
-0.225
-0.175
-0.095
-0.045
-0.02
-0.015
-0.01
-0.03
-0.035
-0.035
-0.06
-0.115
-0.145
-0.17
-0.185
-0.17
-0.175
-0.185
-0.185
-0.185
-0.16
-0.13
-0.11
-0.11
-0.13
-0.125
-0.115
-0.08
-0.08
-0.07
-0.08
-0.09
-0.075
-0.05
-0.03
-0.045
-0.06
-0.06
-0.035
0.005
0.02
0.025
0
0.04
0.05
0.08
0.095
0.105
0.095
0.09
0.11
0.145
0.16
0.16
0.145
0.13
0.15
0.175
0.19
0.18
0.18
0.17
0.17
0.165
0.16
0.13
0.055
-0.01
-0.04
-0.065
-0.11
-0.14
-0.165
-0.165
-0.165
-0.145
-0.15
-0.15
-0.165
-0.165
-0.17
-0.155
-0.145
-0.135
-0.135
-0.165
-0.14
-0.115
-0.095
-0.1
-0.1
-0.11
-0.09
-0.075
-0.055
-0.05
-0.05
-0.055
-0.03
-0.03
-0.005
-0.005
0.005
0.005
0.005
0.025
0.03
0.035
0.025
0.025
0.03
0.05
0.07
0.085
0.095
0.145
0.215
0.265
0.295
0.27
0.22
0.145
0.04
-0.07
-0.17
-0.285
-0.385
-0.5
-0.59
-0.64
-0.67
-0.725
-0.76
-0.785
-0.76
-0.705
-0.675
-0.66
-0.655
-0.64
-0.595
-0.57
-0.53
-0.51
-0.495
-0.445
-0.42
-0.365
-0.305
-0.285
-0.235
-0.215
-0.155
-0.105
-0.06
-0.04
-0.04
-0.03
-0.005
0.03
0.045
0.06
0.06
0.065
0.09
0.13
0.145
0.15
0.12
0.13
0.135
0.145
0.13
0.115
0.08
0.065
0.06
0.07
0.055
0.03
-0.01
-0.055
-0.08
-0.095
-0.085
-0.105
-0.115
-0.11
-0.1
-0.08
-0.05
-0.05
-0.05
-0.04
-0.025
0
0.03
0.04
0.045
0.04
0.06
0.085
0.085
0.09
0.065
0.075
0.09
0.11
0.11
0.11
0.08
0.065
0.07
0.095
0.09
0.09
0.065
0.05
0.06
0.065
0.065
0.065
0.045
0.04
0.045
0.07
0.08
0.09
0.075
0.09
0.09
0.115
0.13
0.13
0.1
0.105
0.11
0.125
0.13
0.11
0.085
0.085
0.055
0.025
0.005
-0.04
-0.1
-0.15
-0.145
-0.165
-0.16
-0.195
-0.225
-0.245
-0.235
-0.215
-0.225
-0.235
-0.23
-0.24
-0.22
-0.205
-0.185
-0.2
-0.205
-0.21
-0.19
-0.17
-0.16
-0.165
-0.17
-0.19
-0.16
-0.145
-0.125
-0.13
-0.135
-0.13
-0.1
-0.09
-0.065
-0.075
-0.08
-0.075
-0.05
-0.025
-0.02
0
0.005
-0.005
0.025
0.035
0.045
0.05
0.04
0.03
0.035
0.05
0.055
0.035
0.035
0.025
0.03
0.025
0.035
0.015
-0.01
-0.05
-0.09
-0.115
-0.135
-0.18
-0.215
-0.225
-0.235
-0.21
-0.195
-0.215
-0.205
-0.21
-0.195
-0.165
-0.155
-0.16
-0.145
-0.14
-0.125
-0.105
-0.085
-0.1
-0.095
-0.1
-0.09
-0.065
-0.06
-0.04
-0.05
-0.04
-0.02
-0.01
0.02
0.01
0.025
0.015
0.03
0.04
0.065
0.055
0.045
0.035
0.045
0.055
0.045
0.035
0.02
0.005
0
-0.015
-0.025
-0.09
-0.13
-0.16
-0.175
-0.18
-0.195
-0.185
-0.215
-0.225
-0.22
-0.175
-0.18
-0.175
-0.175
-0.17
-0.14
-0.115
-0.085
-0.105
-0.095
-0.095
-0.065
-0.04
-0.02
-0.015
-0.02
-0.02
0.03
0.055
0.09
0.1
0.105
0.1
0.115
0.135
0.12
0.105
0.05
-0.025
-0.065
-0.115
-0.17
-0.26
-0.34
-0.4
-0.425
-0.42
-0.435
-0.47
-0.525
-0.59
-0.64
-0.64
-0.64
-0.635
-0.64
-0.6
-0.535
-0.475
-0.42
-0.385
-0.35
-0.32
-0.27
-0.235
-0.225
-0.22
-0.22
-0.2
-0.175
-0.145
-0.135
-0.115
-0.115
-0.095
-0.085
-0.035
-0.015
-0.005
0.005
0.005
0.035
0.06
0.08
0.085
0.1
0.12
0.145
0.155
0.185
0.195
0.19
0.175
0.215
0.26
0.255
0.265
0.25
0.255
0.255
0.27
0.275
0.26
0.22
0.205
0.195
0.19
0.185
0.165
0.13
0.115
0.11
0.11
0.115
0.085
0.085
0.07
0.08
0.1
0.095
0.11
0.085
0.09
0.105
0.125
0.125
0.125
0.105
0.11
0.135
0.14
0.16
0.145
0.135
0.13
0.155
0.155
0.155
0.15
0.13
0.13
0.14
0.145
0.16
0.15
0.125
0.135
0.155
0.175
0.18
0.185
0.175
0.18
0.18
0.19
0.195
0.16
0.115
0.105
0.075
0.07
0.075
0.025
0
-0.03
-0.04
-0.04
-0.04
-0.04
-0.045
-0.04
-0.02
0.015
0.03
0.045
0.045
0.06
0.085
0.095
0.115
0.11
0.115
0.115
0.135
0.15
0.175
0.15
0.15
0.135
0.17
0.16
0.175
0.17
0.17
0.145
0.155
0.16
0.175
0.16
0.13
0.13
0.135
0.135
0.12
0.105
0.06
0.045
0.025
0.025
0.025
0.025
-0.015
-0.015
-0.015
-0.01
-0.015
-0.02
-0.045
-0.05
-0.05
-0.02
-0.015
-0.015
-0.005
-0.01
0.025
0.035
0.06
0.045
0.035
0.045
0.065
0.09
0.07
0.08
0.065
0.05
0.055
0.095
0.08
0.095
0.075
0.065
0.075
0.095
0.11
0.095
0.09
0.09
0.11
0.115
0.125
0.115
0.105
0.085
0.09
0.11
0.11
0.09
0.08
0.065
0.08
0.085
0.09
0.085
0.065
0.05
0.06
0.06
0.075
0.055
0.02
0.02
0.03
0.045
0.07
0.06
0.065
0.045
0.06
0.105
0.125
0.115
0.115
0.125
0.15
0.175
0.195
0.21
0.215
0.225
0.205
0.18
0.15
0.095
0.01
-0.06
-0.11
-0.15
-0.16
-0.215
-0.285
-0.345
-0.43
-0.47
-0.495
-0.49
-0.49
-0.455
-0.39
-0.325
-0.255
-0.2
-0.14
-0.105
-0.08
-0.045
-0.03
-0.045
-0.06
-0.055
-0.045
-0.02
-0.01
-0.015
-0.015
0
0
0.035
0.045
0.035
0.03
0.03
0.05
0.07
0.07
0.075
0.09
0.095
0.11
0.14
0.165
0.155
0.15
0.16
0.165
0.185
0.2
0.18
0.18
0.195
0.215
0.23
0.235
0.235
0.22
0.21
0.22
0.22
0.215
0.21
0.17
0.165
0.18
0.185
0.175
0.15
0.12
0.1
0.105
0.125
0.115
0.085
0.06
0.075
0.065
0.08
0.07
0.08
0.07
0.06
0.08
0.105
0.135
0.14
0.135
0.15
0.17
0.2
0.205
0.185
0.185
0.19
0.235
0.25
0.26
0.245
0.235
0.225
0.22
0.24
0.225
0.22
0.2
0.18
0.175
0.17
0.155
0.14
0.13
0.125
0.13
0.145
0.145
0.135
0.125
0.12
0.15
0.165
0.195
0.175
0.16
0.155
0.17
0.17
0.165
0.16
0.155
0.15
0.15
0.16
0.17
0.165
0.15
0.155
0.17
0.17
0.19
0.195
0.18
0.175
0.205
0.205
0.23
0.22
0.22
0.22
0.24
0.25
0.26
0.255
0.24
0.23
0.25
0.26
0.255
0.24
0.195
0.19
0.175
0.15
0.145
0.105
0.065
0.055
0.035
0.035
0.035
0.015
0.01
0.01
0.025
0.06
0.055
0.06
0.055
0.06
0.09
0.12
0.135
0.125
0.12
0.12
0.14
0.16
0.15
0.145
0.15
0.14
0.15
0.17
0.175
0.175
0.155
0.17
0.185
0.19
0.215
0.205
0.195
0.195
0.21
0.225
0.235
0.215
0.2
0.19
0.195
0.21
0.2
0.175
0.15
0.13
0.135
0.135
0.135
0.115
0.085
0.065
0.05
0.055
0.035
0.01
-0.005
-0.005
0
0
0.015
0.005
0.005
0
0.03
0.065
0.095
0.1
0.115
0.145
0.195
0.255
0.31
0.345
0.33
0.34
0.335
0.32
0.285
0.205
0.09
0.035
-0.02
-0.03
-0.065
-0.135
-0.24
-0.305
-0.335
-0.32
-0.295
-0.26
-0.23
-0.165
-0.085
0.01
0.055
0.085
0.1
0.085
0.085
0.11
0.085
0.055
0.035
0.025
0.01
0.005
-0.02
-0.02
-0.065
-0.08
-0.07
-0.055
-0.055
-0.055
-0.06
-0.06
-0.06
-0.03
-0.01
-0.03
-0.035
-0.03
-0.02
0
0.01
-0.005
-0.025
-0.01
0
0.02
0.025
0.045
0.05
0.06
0.08
0.12
0.135
0.15
0.14
0.165
0.18
0.23
0.24
0.235
0.255
0.26
0.295
0.325
0.345
0.36
0.355
0.35
0.365
0.365
0.355
0.33
0.3
0.265
0.24
0.22
0.17
0.12
0.07
0.035
0.035
0.015
0.005
-0.025
-0.045
-0.055
-0.05
-0.045
-0.045
-0.05
-0.07
-0.065
-0.045
-0.035
-0.02
-0.025
-0.045
-0.05
-0.03
-0.01
-0.005
-0.03
-0.02
-0.02
0
0.015
0.025
0.03
0.02
0.035
0.055
0.08
0.095
0.1
0.09
0.1
0.135
0.15
0.15
0.155
0.145
0.135
0.165
0.19
0.195
0.195
0.195
0.21
0.225
0.235
0.25
0.24
0.235
0.2
0.21
0.2
0.205
0.19
0.155
0.145
0.145
0.18
0.2
0.205
0.21
0.24
0.26
0.26
0.24
0.22
0.18
0.125
0.045
-0.03
-0.105
-0.21
-0.29
-0.37
-0.44
-0.51
-0.595
-0.62
-0.62
-0.58
-0.515
-0.445
-0.36
-0.29
-0.235
-0.165
-0.09
-0.035
0.01
0.02
0.015
0.035
0.065
0.07
0.095
0.09
0.095
0.08
0.115
0.14
0.135
0.145
0.13
0.135
0.155
0.185
0.18
0.185
0.165
0.145
0.14
0.135
0.115
0.1
0.075
0.06
0.065
0.06
0.05
0.025
0.005
-0.02
-0.01
0
0.005
0
0.015
0.02
0.04
0.08
0.085
0.095
0.095
0.095
0.125
0.155
0.165
0.155
0.15
0.145
0.155
0.175
0.19
0.16
0.145
0.145
0.16
0.18
0.18
0.17
0.14
0.155
0.165
0.175
0.175
0.16
0.145
0.13
0.14
0.125
0.11
0.08
0.045
0.035
0.035
0.045
0.04
0.025
0.015
0.015
0.04
0.05
0.075
0.065
0.055
0.05
0.06
0.06
0.06
0.06
0.05
0.04
0.055
0.07
0.075
0.055
0.045
0.045
0.06
0.08
0.075
0.06
0.06
0.065
0.085
0.105
0.12
0.105
0.1
0.11
0.1
0.14
0.15
0.135
0.115
0.115
0.13
0.14
0.15
0.145
0.125
0.13
0.135
0.16
0.15
0.115
0.085
0.065
0.075
0.07
0.06
0.03
0.01
0.015
0.005
0.015
0.02
0.005
-0.01
-0.01
0.01
0.03
0.05
0.045
0.04
0.045
0.055
0.085
0.095
0.095
0.07
0.085
0.105
0.115
0.12
0.115
0.1
0.085
0.105
0.095
0.11
0.09
0.07
0.075
0.09
0.105
0.105
0.08
0.055
0.055
0.07
0.075
0.08
0.065
0.055
0.055
0.06
0.065
0.065
0.05
0.055
0.025
0.035
0.045
0.04
0.02
0.005
-0.01
0
0
0
-0.01
-0.025
-0.025
-0.02
-0.015
-0.005
-0.015
-0.01
-0.02
0.015
0.03
0.055
0.06
0.07
0.08
0.095
0.13
0.15
0.125
0.115
0.125
0.125
0.14
0.15
0.12
0.105
0.09
0.1
0.12
0.11
0.085
0.06
0.07
0.08
0.085
0.08
0.08
0.055
0.05
0.055
0.075
0.08
0.07
0.06
0.075
0.09
0.12
0.125
0.125
0.12
0.115
0.12
0.125
0.125
0.085
0.03
-0.045
-0.085
-0.145
-0.225
-0.32
-0.4
-0.435
-0.45
-0.445
-0.48
-0.53
-0.595
-0.61
-0.605
-0.56
-0.51
-0.475
-0.42
-0.365
-0.28
-0.185
-0.14
-0.095
-0.065
-0.05
-0.03
-0.005
0
-0.005
-0.02
-0.015
-0.01
-0.01
-0.01
-0.02
-0.04
-0.06
-0.05
-0.055
-0.055
-0.07
-0.085
-0.075
-0.055
-0.045
-0.035
-0.05
-0.03
-0.02
0
0.035
0.055
0.055
0.07
0.08
0.095
0.135
0.15
0.155
0.14
0.155
0.19
0.22
0.225
0.23
0.225
0.245
0.27
0.315
0.31
0.33
0.305
0.33
0.355
0.37
0.38
0.385
0.375
0.37
0.34
0.36
0.355
0.32
0.27
0.23
0.21
0.205
0.18
0.145
0.12
0.1
0.095
0.095
0.075
0.045
0.02
0
-0.02
-0.01
-0.02
-0.01
-0.03
-0.03
-0.025
-0.01
0
-0.025
-0.03
-0.03
-0.005
0.01
0.02
0.015
0.005
0.02
0.04
0.075
0.075
0.085
0.085
0.085
0.1
0.125
0.145
0.145
0.13
0.155
0.175
0.185
0.205
0.195
0.195
0.21
0.22
0.24
0.26
0.225
0.22
0.19
0.175
0.14
0.08
0
-0.06
-0.09
-0.105
-0.1
-0.125
-0.13
-0.16
-0.16
-0.14
-0.125
-0.095
-0.085
-0.085
-0.065
-0.05
-0.02
0.015
-0.005
0
0.01
0.02
0.04
0.06
0.055
0.055
0.05
0.075
0.095
0.1
0.1
0.1
0.115
0.13
