0.119
0.114
0.1
0.08
0.069
0.064
0.065
0.072
0.075
0.075
0.071
0.076
0.079
0.08
0.075
0.069
0.068
0.074
0.083
0.091
0.095
0.095
0.095
0.092
0.09
0.092
0.092
0.095
0.098
0.107
0.12
0.126
0.13
0.133
0.13
0.113
0.107
0.109
0.113
0.109
0.102
0.101
0.104
0.102
0.096
0.095
0.094
0.094
0.092
0.09
0.092
0.09
0.087
0.079
0.074
0.07
0.076
0.085
0.086
0.085
0.076
0.079
0.08
0.077
0.074
0.07
0.07
0.065
0.062
0.062
0.066
0.066
0.07
0.069
0.065
0.066
0.069
0.065
0.06
0.061
0.064
0.065
0.064
0.064
0.062
0.061
0.061
0.06
0.066
0.076
0.076
0.062
0.05
0.044
0.041
0.037
0.026
0.013
0.001
-0.006
-0.013
-0.015
-0.018
-0.026
-0.035
-0.037
-0.054
-0.074
-0.08
-0.07
-0.066
-0.065
-0.065
-0.074
-0.081
-0.085
-0.089
-0.091
-0.09
-0.087
-0.098
-0.11
-0.11
-0.092
-0.081
-0.076
-0.08
-0.084
-0.08
-0.081
-0.085
-0.087
-0.09
-0.102
-0.11
-0.109
-0.104
-0.094
-0.092
-0.094
-0.101
-0.105
-0.113
-0.119
-0.121
-0.121
-0.119
-0.121
-0.125
-0.135
-0.145
-0.151
-0.155
-0.149
-0.151
-0.156
-0.165
-0.165
-0.161
-0.164
-0.17
-0.176
-0.176
-0.176
-0.164
-0.139
-0.1
-0.064
-0.079
-0.165
-0.302
-0.471
-0.695
-0.932
-1.136
-1.288
-1.355
-1.386
-1.36
-1.343
-1.281
-1.225
-1.167
-1.097
-1.025
-0.925
-0.843
-0.745
-0.656
-0.549
-0.466
-0.407
-0.345
-0.284
-0.221
-0.168
-0.113
-0.072
-0.05
-0.04
-0.029
-0.01
0.016
0.04
0.049
0.049
0.051
0.054
0.051
0.058
0.069
0.08
0.087
0.1
0.111
0.12
0.128
0.129
0.125
0.121
0.131
0.141
0.151
0.15
0.146
0.147
0.156
0.164
0.159
0.16
0.168
0.174
0.176
0.184
0.195
0.205
0.215
0.219
0.223
0.226
0.234
0.239
0.249
0.264
0.269
0.275
0.278
0.282
0.284
0.287
0.289
0.284
0.29
0.295
0.306
0.307
0.309
0.305
0.297
0.292
0.284
0.281
0.265
0.26
0.247
0.235
0.228
0.216
0.209
0.189
0.18
0.172
0.169
0.156
0.14
0.133
0.126
0.121
0.11
0.104
0.101
0.105
0.105
0.099
0.094
0.09
0.095
0.102
0.116
0.131
0.141
0.14
0.135
0.135
0.141
0.147
0.152
0.166
0.18
0.198
0.209
0.212
0.211
0.199
0.193
0.195
0.204
0.211
0.221
0.234
0.236
0.236
0.231
0.235
0.234
0.221
0.209
0.207
0.216
0.214
0.212
0.206
0.198
0.185
0.176
0.17
0.17
0.177
0.175
0.175
0.179
0.19
0.195
0.2
0.209
0.21
0.214
0.207
0.209
0.206
0.21
0.211
0.194
0.176
0.165
0.165
0.152
0.138
0.13
0.122
0.116
0.107
0.099
0.079
0.058
0.037
0.019
-0.003
-0.021
-0.033
-0.034
-0.039
-0.04
-0.05
-0.06
-0.076
-0.092
-0.107
-0.107
-0.099
-0.098
-0.099
-0.095
-0.089
-0.08
-0.051
-0.005
0.006
-0.065
-0.205
-0.371
-0.58
-0.829
-1.06
-1.238
-1.335
-1.384
-1.37
-1.363
-1.312
-1.265
-1.224
-1.171
-1.12
-1.029
-0.944
-0.84
-0.752
-0.662
-0.565
-0.47
-0.391
-0.343
-0.29
-0.228
-0.156
-0.104
-0.081
-0.076
-0.069
-0.062
-0.055
-0.04
-0.02
-0.003
0.01
0.021
0.03
0.044
0.058
0.075
0.086
0.1
0.111
0.119
0.13
0.14
0.152
0.158
0.164
0.168
0.171
0.168
0.175
0.189
0.212
0.239
0.259
0.274
0.271
0.265
0.261
0.273
0.284
0.287
0.289
0.285
0.295
0.307
0.314
0.316
0.326
0.341
0.347
0.357
0.366
0.376
0.38
0.381
0.384
0.38
0.385
0.388
0.411
0.444
0.458
0.456
0.456
0.472
0.475
0.481
0.474
0.472
0.46
0.444
0.44
0.434
0.445
0.445
0.444
0.424
0.41
0.403
0.388
0.38
0.366
0.36
0.336
0.334
0.331
0.325
0.316
0.31
0.301
0.281
0.279
0.276
0.279
0.282
0.296
0.301
0.287
0.27
0.268
0.297
0.318
0.325
0.326
0.335
0.339
0.338
0.347
0.351
0.359
0.357
0.362
0.357
0.354
0.347
0.338
0.338
0.338
0.343
0.336
0.318
0.3
0.3
0.319
0.33
0.331
0.323
0.315
0.3
0.276
0.255
0.247
0.254
0.25
0.25
0.25
0.259
0.27
0.276
0.273
0.249
0.239
0.241
0.255
0.256
0.247
0.251
0.255
0.268
0.261
0.26
0.259
0.259
0.263
0.26
0.266
0.268
0.274
0.263
0.27
0.28
0.29
0.285
0.279
0.29
0.294
0.279
0.244
0.229
0.225
0.226
0.226
0.233
0.24
0.236
0.234
0.223
0.221
0.212
0.201
0.204
0.212
0.214
0.199
0.2
0.201
0.2
0.195
0.191
0.189
0.195
0.214
0.229
0.217
0.185
0.169
0.181
0.206
0.23
0.23
0.217
0.21
0.2
0.185
0.172
0.18
0.185
0.19
0.189
0.184
0.17
0.159
0.159
0.168
0.18
0.179
0.159
0.136
0.15
0.185
0.185
0.099
-0.064
-0.259
-0.496
-0.794
-1.028
-1.226
-1.327
-1.375
-1.389
-1.357
-1.354
-1.292
-1.262
-1.184
-1.127
-1.038
-0.941
-0.863
-0.759
-0.675
-0.559
-0.476
-0.403
-0.344
-0.278
-0.2
-0.133
-0.094
-0.092
-0.087
-0.071
-0.066
-0.074
-0.066
-0.044
-0.024
-0.01
-0.009
-0.01
-0.007
0.005
0.016
0.026
0.035
0.03
0.016
0.024
0.056
0.09
0.115
0.129
0.15
0.164
0.168
0.169
0.188
0.211
0.229
0.249
0.265
0.285
0.296
0.312
0.319
0.32
0.33
0.345
0.361
0.361
0.37
0.371
0.385
0.386
0.396
0.407
0.411
0.422
0.417
0.43
0.424
0.42
0.409
0.399
0.398
0.389
0.386
0.37
0.376
0.378
0.375
0.361
0.351
0.346
0.333
0.324
0.309
0.292
0.256
0.228
0.22
0.22
0.211
0.198
0.191
0.186
0.188
0.188
0.188
0.184
0.179
0.182
0.186
0.182
0.165
0.152
0.147
0.147
0.152
0.15
0.149
0.151
0.164
0.169
0.154
0.131
0.125
0.135
0.141
0.145
0.144
0.131
0.119
0.113
0.122
0.129
0.138
0.14
0.147
0.151
0.145
0.141
0.15
0.168
0.163
0.154
0.152
0.164
0.175
0.185
0.179
0.163
0.161
0.172
0.196
0.204
0.194
0.155
0.128
0.136
0.161
0.185
0.184
0.175
0.16
0.146
0.144
0.152
0.164
0.166
0.159
0.145
0.14
0.14
0.139
0.134
0.126
0.11
0.091
0.091
0.095
0.098
0.106
0.115
0.115
0.113
0.12
0.129
0.14
0.144
0.149
0.154
0.164
0.174
0.17
0.17
0.172
0.174
0.163
0.15
0.142
0.147
0.161
0.168
0.176
0.177
0.174
0.168
0.169
0.182
0.188
0.191
0.185
0.176
0.171
0.168
0.164
0.149
0.136
0.126
0.13
0.135
0.135
0.135
0.139
0.149
0.156
0.161
0.158
0.155
0.151
0.155
0.145
0.133
0.131
0.133
0.133
0.124
0.119
0.114
0.107
0.099
0.085
0.072
0.064
0.059
0.052
0.046
0.035
0.02
0.004
-0.006
-0.013
-0.02
-0.025
-0.026
-0.029
-0.033
-0.05
-0.071
-0.084
-0.087
-0.085
-0.086
-0.089
-0.091
-0.095
-0.099
-0.1
-0.1
-0.105
-0.111
-0.114
-0.11
-0.107
-0.11
-0.111
-0.106
-0.091
-0.062
-0.019
-0.005
-0.061
-0.184
-0.34
-0.536
-0.795
-1.009
-1.208
-1.315
-1.376
-1.381
-1.349
-1.323
-1.25
-1.218
-1.136
-1.075
-0.976
-0.877
-0.779
-0.679
-0.599
-0.491
-0.403
-0.311
-0.244
-0.174
-0.099
-0.028
0.024
0.054
0.065
0.081
0.1
0.12
0.134
0.139
0.142
0.145
0.158
0.168
0.182
0.199
0.216
0.224
0.226
0.234
0.244
0.258
0.253
0.244
0.24
0.25
0.268
0.274
0.274
0.274
0.284
0.299
0.305
0.306
0.305
0.311
0.31
0.307
0.301
0.301
0.306
0.311
0.323
0.331
0.35
0.345
0.339
0.333
0.343
0.349
0.346
0.347
0.344
0.359
0.372
0.39
0.386
0.369
0.361
0.357
0.37
0.369
0.385
0.389
0.393
0.376
0.352
0.339
0.325
0.324
0.321
0.329
0.31
0.287
0.27
0.258
0.25
0.234
0.228
0.22
0.223
0.219
0.21
0.186
0.165
0.161
0.169
0.175
0.172
0.166
0.159
0.159
0.163
0.163
0.169
0.174
0.188
0.201
0.209
0.21
0.209
0.211
0.22
0.235
0.245
0.253
0.253
0.249
0.254
0.263
0.275
0.275
0.279
0.274
0.276
0.287
0.297
0.301
0.292
0.294
0.292
0.295
0.294
0.295
0.295
0.29
0.29
0.282
0.279
0.265
0.263
0.258
0.259
0.244
0.21
0.195
0.174
0.158
0.14
0.135
0.133
0.126
0.117
0.104
0.098
0.096
0.1
0.101
0.105
0.106
0.104
0.092
0.077
0.074
0.077
0.083
0.074
0.06
0.046
0.041
0.049
0.064
0.066
0.04
0.013
0.004
0.01
0.015
0.018
0.025
0.022
0.01
-0.009
-0.015
-0.005
0.005
0.004
-0.003
-0.001
0.004
-0.003
-0.018
-0.03
-0.033
-0.021
-0.01
-0.011
-0.021
-0.025
-0.026
-0.034
-0.037
-0.025
-0.02
-0.026
-0.037
-0.05
-0.058
-0.062
-0.056
-0.049
-0.044
-0.045
-0.052
-0.052
-0.041
-0.015
0.022
0.054
0.031
-0.06
-0.205
-0.386
-0.606
-0.881
-1.104
-1.281
-1.38
-1.396
-1.41
-1.371
-1.367
-1.316
-1.286
-1.216
-1.134
-1.048
-0.943
-0.863
-0.761
-0.677
-0.571
-0.489
-0.412
-0.344
-0.273
-0.193
-0.128
-0.076
-0.045
-0.028
-0.01
0.007
0.02
0.022
0.02
0.026
0.043
0.06
0.075
0.091
0.1
0.099
0.099
0.098
0.096
0.101
0.111
0.126
0.14
0.159
0.172
0.169
0.138
0.116
0.129
0.161
0.193
0.199
0.21
0.217
0.235
0.253
0.279
0.306
0.329
0.359
0.375
0.399
0.407
0.432
0.453
0.479
0.5
0.514
0.52
0.506
0.52
0.522
0.539
0.542
0.551
0.55
0.537
0.532
0.522
0.534
0.53
0.529
0.51
0.494
0.475
0.449
0.436
0.42
0.416
0.4
0.374
0.339
0.314
0.304
0.297
0.294
0.281
0.278
0.27
0.261
0.254
0.256
0.27
0.274
0.268
0.255
0.255
0.263
0.271
0.278
0.274
0.281
0.28
0.275
0.265
0.266
0.278
0.279
0.274
0.255
0.255
0.258
0.263
0.269
0.278
0.281
0.264
0.253
0.239
0.24
0.24
0.244
0.242
0.233
0.224
0.214
0.22
0.225
0.236
0.246
0.254
0.255
0.254
0.261
0.249
0.237
0.229
0.235
0.236
0.236
0.239
0.246
0.255
0.255
0.258
0.25
0.242
0.24
0.249
0.247
0.235
0.233
0.23
0.226
0.209
0.196
0.2
0.206
0.2
0.185
0.175
0.168
0.165
0.164
0.165
0.166
0.168
0.168
0.165
0.161
0.154
0.145
0.142
0.139
0.141
0.145
0.15
0.129
0.095
0.08
0.079
0.074
0.061
0.074
0.102
0.122
0.105
0.037
-0.071
-0.229
-0.455
-0.735
-1.021
-1.202
-1.353
-1.391
-1.411
-1.397
-1.357
-1.331
-1.265
-1.236
-1.15
-1.087
-0.995
-0.925
-0.851
-0.756
-0.676
-0.583
-0.511
-0.43
-0.372
-0.309
-0.245
-0.181
-0.126
-0.102
-0.087
-0.075
-0.055
-0.041
-0.035
-0.031
-0.02
-0.005
-0.009
-0.015
0.003
0.031
0.045
0.044
0.05
0.071
0.084
0.084
0.086
0.102
0.115
0.119
0.124
0.129
0.134
0.149
0.164
0.163
0.164
0.184
0.206
0.22
0.207
0.199
0.211
0.241
0.265
0.27
0.278
0.281
0.304
0.318
0.33
0.339
0.35
0.354
0.37
0.396
0.399
0.414
0.412
0.419
0.419
0.443
0.454
0.436
0.419
0.386
0.37
0.366
0.391
0.391
0.388
0.396
0.403
0.404
0.385
0.375
0.357
0.344
0.319
0.3
0.294
0.29
0.295
0.294
0.287
0.27
0.263
0.25
0.237
0.237
0.251
0.279
0.289
0.286
0.27
0.261
0.256
0.258
0.275
0.287
0.299
0.305
0.314
0.305
0.292
0.29
0.287
0.292
0.299
0.319
0.339
0.336
0.309
0.289
0.294
0.295
0.305
0.306
0.299
0.282
0.265
0.254
0.242
0.247
0.241
0.233
0.217
0.21
0.211
0.219
0.236
0.224
0.198
0.177
0.191
0.21
0.223
0.21
0.199
0.205
0.207
0.206
0.182
0.164
0.161
0.171
0.185
0.19
0.19
0.182
0.176
0.164
0.158
0.161
0.168
0.177
0.182
0.174
0.163
0.164
0.17
0.175
0.163
0.138
0.117
0.11
0.11
0.114
0.117
0.116
0.111
0.102
0.095
0.096
0.101
0.105
0.114
0.125
0.124
0.117
0.119
0.117
0.121
0.115
0.107
0.109
0.121
0.133
0.125
0.113
0.105
0.113
0.12
0.121
0.111
0.102
0.111
0.11
0.091
0.066
0.056
0.054
0.048
0.035
0.011
-0.006
-0.013
-0.01
-0.01
-0.022
-0.036
-0.049
-0.059
-0.069
-0.075
-0.07
-0.068
-0.083
-0.106
-0.107
-0.094
-0.084
-0.084
-0.089
-0.09
-0.087
-0.081
-0.081
-0.077
-0.075
-0.083
-0.096
-0.1
-0.095
-0.102
-0.11
-0.111
-0.11
-0.106
-0.1
-0.104
-0.111
-0.106
-0.11
-0.133
-0.159
-0.166
-0.163
-0.158
-0.144
-0.117
-0.1
-0.134
-0.226
-0.361
-0.562
-0.806
-1.062
-1.23
-1.354
-1.4
-1.403
-1.386
-1.353
-1.331
-1.278
-1.244
-1.157
-1.075
-0.981
-0.899
-0.829
-0.739
-0.657
-0.551
-0.469
-0.39
-0.33
-0.266
-0.2
-0.14
-0.09
-0.062
-0.04
-0.018
0
0.005
0.013
0.029
0.046
0.05
0.045
0.044
0.045
0.045
0.054
0.068
0.08
0.084
0.075
0.076
0.077
0.072
0.071
0.08
0.092
0.107
0.12
0.125
0.13
0.135
0.135
0.125
0.126
0.144
0.158
0.163
0.17
0.185
0.2
0.217
0.239
0.239
0.219
0.204
0.22
0.239
0.242
0.229
0.215
0.22
0.226
0.228
0.207
0.196
0.201
0.219
0.236
0.23
0.217
0.196
0.177
0.156
0.139
0.131
0.133
0.129
0.121
0.116
0.101
0.083
0.066
0.06
0.068
0.061
0.043
0.025
0.022
0.016
0.005
0.009
0.01
-0.001
-0.019
-0.01
0.015
0.028
0.022
0.006
-0.007
-0.016
-0.013
-0.009
-0.009
-0.005
-0.001
0.001
0.006
0.009
0.015
0.02
0.018
0.015
0.022
0.037
0.046
0.045
0.037
0.026
0.019
0.016
0.022
0.036
0.048
0.058
0.065
0.08
0.094
0.087
0.072
0.065
0.065
0.075
0.084
0.087
0.092
0.087
0.062
0.025
0.01
0.022
0.029
0.011
-0.028
-0.046
-0.041
-0.041
-0.043
-0.044
-0.05
-0.058
-0.061
-0.075
-0.099
-0.111
-0.126
-0.13
-0.131
-0.128
-0.128
-0.125
-0.128
-0.131
-0.126
-0.124
-0.115
-0.116
-0.114
-0.111
-0.117
-0.117
-0.113
-0.106
-0.11
-0.11
-0.116
-0.125
-0.124
-0.122
-0.119
-0.124
-0.128
-0.135
-0.14
-0.144
-0.149
-0.145
-0.149
-0.151
-0.159
-0.163
-0.165
-0.172
-0.182
-0.188
-0.184
-0.185
-0.191
-0.201
-0.203
-0.198
-0.193
-0.191
-0.191
-0.186
-0.18
-0.156
-0.121
-0.098
-0.13
-0.235
-0.367
-0.55
-0.757
-0.99
-1.165
-1.291
-1.369
-1.37
-1.376
-1.321
-1.294
-1.235
-1.19
-1.125
-1.054
-0.99
-0.896
-0.828
-0.73
-0.656
-0.569
-0.5
-0.448
-0.403
-0.356
-0.292
-0.245
-0.206
-0.191
-0.18
-0.175
-0.166
-0.152
-0.144
-0.131
-0.121
-0.1
-0.08
-0.064
-0.065
-0.065
-0.056
-0.045
-0.037
-0.036
-0.034
-0.029
-0.022
-0.014
-0.009
-0.001
0.007
0.019
0.031
0.036
0.035
0.037
0.048
0.06
0.07
0.075
0.075
0.077
0.08
0.089
0.11
0.13
0.16
0.184
0.217
0.242
0.263
0.284
0.306
0.34
0.367
0.393
0.389
0.395
0.401
0.412
0.438
0.448
0.464
0.461
0.454
0.429
0.43
0.427
0.405
0.378
0.338
0.324
0.315
0.325
0.331
0.334
0.309
0.27
0.254
0.241
0.24
0.231
0.234
0.233
0.231
0.224
0.207
0.201
0.203
0.211
0.212
0.212
0.201
0.199
0.204
0.2
0.205
0.215
0.219
0.216
0.217
0.216
0.22
0.231
0.237
0.236
0.225
0.223
0.224
0.215
0.201
0.199
0.21
0.221
0.233
0.235
0.235
0.229
0.211
0.199
0.188
0.185
0.175
0.17
0.169
0.174
0.181
0.189
0.195
0.186
0.179
0.177
0.174
0.156
0.138
0.135
0.14
0.15
0.149
0.15
0.147
0.149
0.159
0.168
0.174
0.16
0.15
0.14
0.144
0.146
0.147
0.15
0.151
0.156
0.16
0.165
0.163
0.165
0.163
0.161
0.155
0.15
0.155
0.158
0.161
0.16
0.156
0.149
0.144
0.142
0.149
0.154
0.142
0.125
0.111
0.11
0.113
0.111
0.107
0.096
0.09
0.086
0.085
0.08
0.076
0.085
0.096
0.114
0.142
0.185
0.196
0.128
-0.011
-0.193
-0.435
-0.699
-0.96
-1.127
-1.241
-1.276
-1.274
-1.265
-1.229
-1.208
-1.14
-1.091
-1.012
-0.934
-0.83
-0.738
-0.66
-0.562
-0.464
-0.359
-0.278
-0.205
-0.136
-0.062
0.01
0.069
0.1
0.111
0.111
0.12
0.136
0.154
0.175
0.185
0.177
0.155
0.15
0.155
0.165
0.171
0.17
0.159
0.147
0.141
0.139
0.139
0.134
0.13
0.133
0.14
0.142
0.142
0.144
0.145
0.151
0.161
0.171
0.177
0.184
0.195
0.199
0.209
0.216
0.226
0.242
0.255
0.263
0.268
0.281
0.29
0.299
0.302
0.312
0.318
0.321
0.344
0.351
0.355
0.356
0.366
0.372
0.376
0.384
0.383
0.389
0.378
0.381
0.38
0.38
0.356
0.339
0.34
0.328
0.32
0.302
0.299
0.289
0.287
0.282
0.273
0.265
0.254
0.258
0.259
0.269
0.268
0.26
0.253
0.244
0.241
0.237
0.239
0.235
0.235
0.235
0.237
0.239
0.241
0.249
0.241
0.231
0.22
0.225
0.23
0.23
0.22
0.201
0.189
0.184
0.193
0.194
0.198
0.196
0.195
0.201
0.204
0.203
0.196
0.198
0.2
0.196
0.195
0.191
0.198
0.195
0.196
0.193
0.184
0.18
0.181
0.186
0.179
0.174
0.172
0.174
0.172
0.166
0.163
0.155
0.155
0.145
0.144
0.144
0.142
0.14
0.126
0.11
0.089
0.075
0.061
0.054
0.05
0.064
0.077
0.079
0.071
0.064
0.065
0.068
0.07
0.066
0.066
0.071
0.074
0.079
0.092
0.115
0.128
0.126
0.122
0.133
0.144
0.14
0.12
0.102
0.1
0.099
0.098
0.099
0.099
0.098
0.095
0.095
0.094
0.092
0.081
0.076
0.08
0.087
0.09
0.083
0.075
0.062
0.055
0.043
0.026
0.028
0.037
0.045
0.049
0.052
0.061
0.065
0.068
0.065
0.066
0.07
0.076
0.08
0.079
0.069
0.06
0.065
0.072
0.077
0.077
0.079
0.081
0.084
0.09
0.089
0.089
0.089
0.092
0.096
0.102
0.091
0.077
0.071
0.068
0.065
0.061
0.06
0.065
0.076
0.08
0.083
0.091
0.098
0.089
0.062
0.054
0.062
0.064
0.06
0.069
0.079
0.068
0.049
0.048
0.065
0.083
0.094
0.099
0.098
0.096
0.099
0.1
0.099
0.101
0.106
0.107
0.1
0.094
0.095
0.087
0.07
0.052
0.043
0.03
0.02
0.014
0.001
-0.009
-0.013
-0.009
-0.004
-0.006
-0.004
0.003
0.009
0.006
0.009
0.007
0.001
-0.003
-0.003
-0.003
-0.005
-0.014
-0.028
-0.024
-0.016
-0.019
0
0.035
0.048
-0.004
-0.116
-0.259
-0.445
-0.666
-0.934
-1.144
-1.285
-1.364
-1.353
-1.367
-1.33
-1.327
-1.278
-1.23
-1.164
-1.087
-1.026
-0.925
-0.851
-0.757
-0.667
-0.56
-0.48
-0.43
-0.365
-0.292
-0.219
-0.166
-0.129
-0.111
-0.1
-0.084
-0.069
-0.061
-0.062
-0.056
-0.054
-0.045
-0.033
-0.009
0.016
0.025
0.024
0.026
0.031
0.037
0.048
0.056
0.061
0.061
0.062
0.059
0.06
0.07
0.085
0.092
0.08
0.074
0.07
0.072
0.072
0.076
0.08
0.084
0.095
0.102
0.113
0.119
0.13
0.14
0.152
0.169
0.181
0.198
0.203
0.204
0.196
0.205
0.219
0.229
0.239
0.242
0.247
0.247
0.251
0.249
0.255
0.256
0.259
0.26
0.254
0.234
0.207
0.193
0.172
0.164
0.156
0.147
0.134
0.129
0.126
0.107
0.083
0.066
0.058
0.051
0.055
0.066
0.074
0.07
0.065
0.06
0.054
0.049
0.052
0.065
0.068
0.058
0.062
0.075
0.079
0.081
0.089
0.1
0.11
0.12
0.125
0.13
0.13
0.124
0.13
0.135
0.136
0.129
0.129
0.128
0.134
0.142
0.154
0.165
0.15
0.126
0.105
0.107
0.116
0.128
0.141
0.154
0.161
0.147
0.133
0.124
0.126
0.13
0.135
0.14
0.146
0.152
0.154
0.147
0.139
0.141
0.144
0.142
0.141
0.142
0.142
0.142
0.155
0.168
0.174
0.16
0.139
0.128
0.131
0.138
0.136
0.135
0.134
0.13
0.128
0.122
0.114
0.098
0.09
0.085
0.084
0.087
0.091
0.095
0.1
0.111
0.11
0.1
0.1
0.111
0.11
0.102
0.113
0.125
0.129
0.124
0.126
0.14
0.149
0.155
0.149
0.145
0.136
0.145
0.16
0.17
0.17
0.165
0.169
0.164
0.159
0.151
0.144
0.128
0.12
0.117
0.109
0.104
0.095
0.085
0.065
0.041
0.026
0.019
0.02
0.018
0.007
-0.009
-0.028
-0.043
-0.05
-0.051
-0.055
-0.062
-0.069
-0.07
-0.076
-0.092
-0.101
-0.092
-0.07
-0.036
0.007
0.03
-0.022
-0.149
-0.314
-0.519
-0.762
-1.015
-1.2
-1.325
-1.364
-1.38
-1.361
-1.344
-1.309
-1.27
-1.23
-1.164
-1.095
-0.993
-0.907
-0.824
-0.746
-0.655
-0.556
-0.477
-0.404
-0.34
-0.269
-0.198
-0.128
-0.08
-0.068
-0.062
-0.045
-0.022
-0.006
0
0.006
0.018
0.031
0.05
0.066
0.081
0.096
0.114
0.124
0.136
0.16
0.188
0.217
0.239
0.259
0.27
0.294
0.307
0.324
0.341
0.36
0.38
0.391
0.409
0.42
0.44
0.441
0.435
0.432
0.427
0.43
0.426
0.438
0.443
0.451
0.458
0.471
0.482
0.489
0.495
0.497
0.51
0.514
0.526
0.544
0.551
0.552
0.53
0.52
0.512
0.501
0.487
0.49
0.509
0.507
0.5
0.474
0.469
0.477
0.481
0.47
0.445
0.425
0.381
0.347
0.331
0.338
0.336
0.328
0.316
0.285
0.26
0.24
0.24
0.235
0.231
0.229
0.224
0.219
0.215
0.225
0.221
0.217
0.219
0.221
0.214
0.207
0.212
0.22
0.23
0.225
0.237
0.247
0.253
0.255
0.258
0.254
0.251
0.265
0.271
0.276
0.28
0.282
0.278
0.269
0.268
0.275
0.291
0.296
0.291
0.284
0.284
0.291
0.285
0.268
0.253
0.254
0.255
0.251
0.244
0.228
0.217
0.215
0.224
0.229
0.228
0.219
0.2
0.2
0.206
0.215
0.212
0.211
0.214
0.22
0.229
0.233
0.229
0.191
0.155
0.144
0.152
0.154
0.141
0.128
0.113
0.109
0.101
0.095
0.08
0.071
0.068
0.055
0.041
0.021
0.005
-0.005
-0.014
-0.014
-0.016
-0.016
-0.016
-0.019
-0.025
-0.036
-0.048
-0.056
-0.052
-0.044
-0.035
-0.025
-0.021
-0.019
-0.015
-0.011
-0.011
-0.005
0.005
0.006
-0.004
-0.02
-0.026
-0.024
-0.026
-0.031
-0.036
-0.036
-0.043
-0.056
-0.062
-0.059
-0.056
-0.056
-0.061
-0.076
-0.086
-0.091
-0.094
-0.104
-0.114
-0.126
-0.136
-0.135
-0.13
-0.131
-0.138
-0.141
-0.14
-0.133
-0.134
-0.138
-0.134
-0.11
-0.076
-0.045
-0.05
-0.134
-0.261
-0.431
-0.636
-0.866
-1.087
-1.22
-1.337
-1.35
-1.365
-1.353
-1.319
-1.29
-1.225
-1.176
-1.071
-1.006
-0.909
-0.828
-0.735
-0.639
-0.56
-0.477
-0.417
-0.351
-0.301
-0.244
-0.196
-0.17
-0.16
-0.151
-0.13
-0.116
-0.096
-0.075
-0.054
-0.045
-0.044
-0.033
-0.018
-0.007
0
0.009
0.025
0.045
0.06
0.074
0.087
0.111
0.134
0.156
0.184
0.201
0.211
0.209
0.217
0.235
0.255
0.265
0.273
0.278
0.287
0.306
0.31
0.314
0.304
0.305
0.314
0.321
0.329
0.331
0.349
0.351
0.36
0.361
0.374
0.371
0.362
0.369
0.375
0.399
0.404
0.42
0.421
0.429
0.417
0.403
0.404
0.404
0.412
0.399
0.393
0.386
0.39
0.378
0.352
0.341
0.329
0.312
0.279
0.254
0.231
0.221
0.212
0.204
0.193
0.176
0.169
0.161
0.158
0.152
0.152
0.152
0.146
0.145
0.149
0.155
0.159
0.165
0.161
0.152
0.147
0.144
0.149
0.146
0.142
0.147
0.155
0.155
0.149
0.156
0.159
0.155
0.154
0.15
0.145
0.138
0.129
0.119
0.12
0.124
0.138
0.139
0.129
0.12
0.117
0.121
0.12
0.115
0.104
0.104
0.114
0.12
0.13
0.133
0.139
0.139
0.142
0.14
0.139
0.138
0.134
0.129
0.128
0.134
0.138
0.141
0.14
0.14
0.146
0.142
0.135
0.134
0.144
0.144
0.133
0.121
0.117
0.117
0.116
0.115
0.115
0.116
0.117
0.115
0.101
0.09
0.086
0.084
0.086
0.094
0.089
0.072
0.06
0.058
0.06
0.064
0.068
0.074
0.075
0.068
0.064
0.092
0.14
0.151
0.085
-0.052
-0.233
-0.444
-0.699
-0.941
-1.127
-1.272
-1.302
-1.32
-1.279
-1.251
-1.199
-1.15
-1.103
-1.029
-0.971
-0.87
-0.79
-0.703
-0.636
-0.555
-0.475
-0.416
-0.361
-0.316
-0.251
-0.203
-0.155
-0.126
-0.111
-0.099
-0.084
-0.069
-0.064
-0.059
-0.055
-0.046
-0.03
-0.01
0.009
0.021
0.019
0.018
0.025
0.031
0.041
0.054
0.07
0.077
0.08
0.085
0.094
0.105
0.116
0.13
0.142
0.154
0.156
0.151
0.145
0.152
0.164
0.175
0.163
0.144
0.144
0.156
0.174
0.191
0.216
0.237
0.239
0.231
0.225
0.251
0.278
0.291
0.289
0.295
0.306
0.309
0.316
0.316
0.33
0.338
0.347
0.339
0.334
0.335
0.326
0.319
0.309
0.315
0.319
0.335
0.341
0.335
0.33
0.316
0.315
0.304
0.296
0.279
0.261
0.25
0.247
0.241
0.23
0.236
0.245
0.244
0.217
0.199
0.194
0.194
0.2
0.205
0.217
0.221
0.217
0.204
0.203
0.215
0.23
0.245
0.24
0.234
0.237
0.25
0.254
0.256
0.265
0.263
0.259
0.258
0.264
0.263
0.264
0.264
0.258
0.263
0.273
0.28
0.275
0.266
0.247
0.23
0.221
0.22
0.219
0.199
0.171
0.16
0.181
0.204
0.191
0.171
0.15
0.136
0.117
0.115
0.135
0.16
0.165
0.145
0.13
0.12
0.128
0.136
0.152
0.165
0.163
0.159
0.147
0.144
0.145
0.155
0.158
0.16
0.166
0.168
0.169
0.169
0.169
0.168
0.171
0.168
0.16
0.154
0.155
0.16
0.16
0.169
0.172
0.169
0.16
0.165
0.175
0.181
0.176
0.155
0.139
0.144
0.161
0.174
0.18
0.184
0.179
0.18
0.19
0.203
0.198
0.174
0.165
0.174
0.182
0.185
0.189
0.188
0.185
0.189
0.203
0.209
0.193
0.18
0.181
0.195
0.191
0.181
0.18
0.182
0.189
0.181
0.181
0.179
0.184
0.191
0.201
0.209
0.207
0.204
0.191
0.193
0.19
0.185
0.174
0.169
0.166
0.159
0.152
0.142
0.138
0.12
0.099
0.089
0.086
0.086
0.085
0.08
0.07
0.064
0.06
0.06
0.049
0.031
0.018
0.004
-0.006
-0.014
-0.018
-0.022
-0.026
-0.043
-0.062
-0.069
-0.054
-0.033
-0.003
0.018
-0.016
-0.121
-0.281
-0.471
-0.715
-0.945
-1.15
-1.285
-1.341
-1.35
-1.33
-1.32
-1.261
-1.22
-1.143
-1.059
-0.954
-0.84
-0.745
-0.629
-0.522
-0.409
-0.321
-0.246
-0.186
-0.13
-0.069
0.004
0.07
0.113
0.122
0.129
0.131
0.131
0.141
0.152
0.17
0.182
0.19
0.181
0.174
0.166
0.158
0.163
0.179
0.2
0.203
0.206
0.21
0.22
0.224
0.224
0.223
0.215
0.221
0.235
0.247
0.251
0.258
0.269
0.282
0.304
0.323
0.33
0.318
0.319
0.328
0.345
0.366
0.38
0.386
0.384
0.395
0.406
0.415
0.424
0.434
0.441
0.435
0.448
0.45
0.448
0.44
0.431
0.438
0.436
0.453
0.448
0.426
0.385
0.365
0.362
0.359
0.347
0.32
0.31
0.294
0.284
0.27
0.251
0.241
0.231
0.226
0.215
0.212
0.205
0.199
0.19
0.175
0.175
0.182
0.194
0.194
0.199
0.19
0.176
0.174
0.177
0.181
0.18
0.18
0.177
0.189
0.198
0.209
0.22
0.23
0.234
0.229
0.229
0.225
0.23
0.24
0.25
0.251
0.241
0.234
0.216
0.201
0.185
0.177
0.175
0.177
0.175
0.169
0.168
0.175
0.182
0.179
0.172
0.171
0.174
0.18
0.18
0.182
0.176
0.175
0.175
0.176
0.18
0.176
0.179
0.175
0.179
0.179
0.184
0.188
0.186
0.188
0.18
0.184
0.188
0.19
0.189
0.199
0.207
0.2
0.199
0.193
0.189
0.177
0.177
0.175
0.164
0.154
0.141
0.135
0.135
0.14
0.144
0.142
0.136
0.126
0.124
0.124
0.133
0.144
0.161
0.163
0.155
0.145
0.152
0.165
0.164
0.16
0.163
0.165
0.152
0.14
0.139
0.144
0.141
0.126
0.111
0.098
0.08
0.058
0.046
0.045
0.037
0.025
0.019
0.011
-0.003
-0.021
-0.036
-0.04
-0.041
-0.043
-0.054
-0.062
-0.069
-0.069
-0.071
-0.081
-0.099
-0.107
-0.099
-0.099
-0.106
-0.113
-0.114
-0.119
-0.121
-0.12
-0.121
-0.11
-0.086
-0.051
-0.04
-0.081
-0.186
-0.326
-0.525
-0.794
-1.014
-1.209
-1.31
-1.359
-1.351
-1.308
-1.288
-1.228
-1.204
-1.136
-1.087
-1
-0.911
-0.834
-0.745
-0.671
-0.571
-0.487
-0.41
-0.37
-0.338
-0.299
-0.255
-0.203
-0.16
-0.126
-0.106
-0.091
-0.076
-0.061
-0.05
-0.049
-0.041
-0.03
-0.026
-0.022
-0.016
-0.005
0.014
0.025
0.036
0.051
0.074
0.094
0.107
0.129
0.147
0.161
0.164
0.184
0.2
0.215
0.223
0.234
0.251
0.259
0.274
0.278
0.284
0.28
0.286
0.292
0.294
0.301
0.3
0.309
0.312
0.324
0.323
0.323
0.325
0.328
0.334
0.328
0.339
0.339
0.345
0.341
0.343
0.335
0.325
0.329
0.329
0.333
0.323
0.312
0.297
0.276
0.25
0.229
0.22
0.211
0.203
0.198
0.198
0.191
0.181
0.164
0.142
0.131
0.124
0.113
0.089
0.08
0.08
0.079
0.08
0.083
0.087
0.089
0.084
0.079
0.077
0.084
0.083
0.084
0.084
0.085
0.086
0.09
0.096
0.1
0.101
0.098
0.105
0.115
0.124
0.128
0.128
0.128
0.128
0.134
0.131
0.133
0.135
0.14
0.144
0.142
0.141
0.134
0.129
0.121
0.121
0.117
0.114
0.111
0.105
0.1
0.096
0.096
0.101
0.109
0.109
0.107
0.105
0.109
0.111
0.11
0.113
0.11
0.102
0.096
0.094
0.096
0.096
0.095
0.095
0.098
0.098
0.096
0.098
0.099
0.1
0.105
0.11
0.114
0.12
0.129
0.138
0.145
0.145
0.141
0.135
0.124
0.12
0.129
0.133
0.129
0.126
0.111
0.087
0.062
0.037
0.016
0.004
0
-0.009
-0.015
-0.019
-0.021
-0.025
-0.034
-0.039
-0.046
-0.049
-0.054
-0.066
-0.072
-0.079
-0.08
-0.081
-0.084
-0.09
-0.095
-0.1
-0.105
-0.105
-0.107
-0.107
-0.107
-0.109
-0.114
-0.116
-0.114
-0.116
-0.117
-0.122
-0.122
-0.122
-0.125
-0.124
-0.12
-0.102
-0.081
-0.044
-0.025
-0.062
-0.156
-0.29
-0.47
-0.704
-0.939
-1.143
-1.275
-1.347
-1.36
-1.341
-1.319
-1.271
-1.239
-1.174
-1.12
-1.046
-0.964
-0.881
-0.794
-0.715
-0.629
-0.552
-0.475
-0.42
-0.375
-0.323
-0.261
-0.2
-0.155
-0.128
-0.117
-0.109
-0.099
-0.085
-0.074
-0.06
-0.048
-0.031
-0.019
-0.014
-0.005
0
0.011
0.022
0.037
0.049
0.062
0.072
0.077
0.079
0.085
0.092
0.099
0.11
0.119
0.135
0.152
0.169
0.186
0.196
0.201
0.212
0.231
0.249
0.273
0.284
0.3
0.31
0.311
0.316
0.323
0.335
0.345
0.361
0.372
0.385
0.398
0.403
0.405
0.403
0.409
0.41
0.409
0.406
0.4
0.404
0.404
0.405
0.396
0.393
0.386
0.381
0.385
0.383
0.376
0.354
0.345
0.344
0.343
0.34
0.329
0.316
0.297
0.289
0.271
0.258
0.25
0.242
0.236
0.223
0.216
0.209
0.209
0.205
0.212
0.224
0.231
0.231
0.22
0.22
0.219
0.233
0.241
0.253
0.259
0.261
0.268
0.271
0.284
0.289
0.291
0.289
0.295
0.304
0.309
0.307
0.3
0.306
0.307
0.307
0.301
0.3
0.295
0.282
0.269
0.251
0.247
0.237
0.231
0.225
0.226
0.228
0.22
0.204
0.177
0.159
0.134
0.111
0.099
0.094
0.091
0.079
0.076
0.075
0.074
0.074
0.069
0.058
0.048
0.045
0.04
0.041
0.051
0.06
0.06
0.056
0.061
0.06
0.058
0.048
0.041
0.045
0.046
0.04
0.034
0.031
0.028
0.035
0.04
0.041
0.04
0.034
0.031
0.026
0.026
0.024
0.024
0.025
0.024
0.021
0.018
0.018
0.013
0.004
-0.004
-0.009
-0.01
-0.007
0
0.004
0.004
0.004
0.004
0.004
0.001
-0.006
-0.016
-0.024
-0.016
-0.005
0.01
0.013
-0.003
-0.025
-0.048
-0.061
-0.064
-0.056
-0.05
-0.044
-0.036
-0.009
0.036
0.083
0.072
-0.02
-0.16
-0.347
-0.576
-0.84
-1.073
-1.232
-1.33
-1.337
-1.344
-1.3
-1.271
-1.219
-1.169
-1.111
-1.039
-0.966
-0.865
-0.791
-0.698
-0.611
-0.511
-0.421
-0.351
-0.294
-0.244
-0.172
-0.101
-0.04
-0.01
-0.003
0.01
0.034
0.05
0.056
0.056
0.069
0.083
0.094
0.105
0.113
0.114
0.115
0.126
0.136
0.149
0.155
0.159
0.16
0.166
0.175
0.188
0.203
0.216
0.233
0.244
0.251
0.256
0.264
0.285
0.307
0.331
0.346
0.357
0.37
0.384
0.403
0.417
0.444
0.466
0.49
0.51
0.524
0.535
0.534
0.537
0.534
0.55
0.549
0.545
0.544
0.545
0.555
0.55
0.556
0.542
0.542
0.537
0.532
0.521
0.497
0.491
0.475
0.472
0.455
0.45
0.436
0.431
0.427
0.419
0.416
0.404
0.399
0.38
0.372
0.361
0.352
0.347
0.334
0.335
0.335
0.339
0.333
0.333
0.329
0.323
0.316
0.306
0.306
0.3
0.304
0.301
0.299
0.291
0.282
0.274
0.259
0.25
0.24
0.24
0.236
0.231
0.233
0.234
0.22
0.194
0.184
0.182
0.172
0.165
0.165
0.176
0.179
0.176
0.168
0.164
0.16
0.16
0.161
0.16
0.161
0.155
0.152
0.141
0.121
0.094
0.075
0.079
0.08
0.079
0.072
0.068
0.066
0.066
0.065
0.052
0.048
0.044
0.04
0.03
0.024
0.024
0.019
0.014
0.007
0
-0.015
-0.025
-0.022
-0.02
-0.014
-0.014
-0.015
-0.016
-0.007
0.02
0.062
0.091
0.058
-0.061
-0.225
-0.421
-0.671
-0.943
-1.151
-1.308
-1.359
-1.373
-1.357
-1.334
-1.312
-1.27
-1.236
-1.165
-1.095
-0.993
-0.894
-0.8
-0.706
-0.623
-0.525
-0.438
-0.362
-0.312
-0.253
-0.185
-0.125
-0.089
-0.072
-0.065
-0.061
-0.055
-0.041
-0.025
-0.01
0.003
0.009
0.016
0.029
0.043
0.054
0.069
0.085
0.099
0.105
0.1
0.11
0.124
0.138
0.142
0.14
0.15
0.16
0.182
0.2
0.226
0.244
0.25
0.256
0.263
0.278
0.289
0.306
0.315
0.33
0.343
0.352
0.345
0.334
0.34
0.345
0.355
0.346
0.347
0.35
0.359
0.362
0.36
0.36
0.351
0.355
0.357
0.367
0.375
0.367
0.35
0.328
0.324
0.314
0.304
0.294
0.285
0.269
0.254
0.246
0.233
0.223
0.216
0.211
0.198
0.177
0.169
0.17
0.18
0.184
0.194
0.206
0.211
0.217
0.223
0.235
0.236
0.245
0.255
0.275
0.278
0.27
0.269
0.268
0.28
0.29
0.301
0.305
0.316
0.323
0.316
0.319
0.318
0.328
0.325
0.335
0.339
0.346
0.349
0.35
0.351
0.344
0.347
0.341
0.343
0.335
0.326
0.326
0.33
0.336
0.336
0.343
0.338
0.335
0.329
0.321
0.319
0.318
0.32
0.319
0.321
0.312
0.295
0.265
0.242
0.24
0.237
0.231
0.22
0.206
0.193
0.175
0.159
0.152
0.144
0.126
0.113
0.102
0.096
0.091
0.086
0.087
0.081
0.064
0.049
0.045
0.051
0.052
0.046
0.035
0.031
0.025
0.015
0.007
0.005
0.006
-0.003
-0.009
-0.01
-0.009
-0.016
-0.037
-0.055
-0.062
-0.058
-0.06
-0.072
-0.081
-0.081
-0.077
-0.075
-0.077
-0.086
-0.087
-0.08
-0.062
-0.03
0.009
0.011
-0.065
-0.214
-0.395
-0.609
-0.86
-1.097
-1.255
-1.36
-1.37
-1.38
-1.356
-1.326
-1.296
-1.238
-1.198
-1.123
-1.05
-0.946
-0.858
-0.781
-0.703
-0.614
-0.514
-0.445
-0.389
-0.338
-0.28
-0.229
-0.185
-0.152
-0.135
-0.122
-0.113
-0.1
-0.083
-0.064
-0.05
-0.048
-0.045
-0.034
-0.019
-0.001
0.019
0.026
0.029
0.028
0.037
0.049
0.069
0.09
0.102
0.1
0.086
0.084
0.092
0.119
0.15
0.168
0.158
0.154
0.158
0.16
0.17
0.171
0.177
0.195
0.226
0.235
0.247
0.254
0.229
0.177
0.158
0.206
0.259
0.275
0.258
0.251
0.255
0.253
0.269
0.291
0.314
0.329
0.349
0.355
0.343
0.343
0.359
0.384
0.391
0.395
0.395
0.405
0.421
0.429
0.421
0.401
0.36
0.274
0.217
0.224
0.241
0.25
0.249
0.266
0.284
0.281
0.235
0.193
0.177
0.177
0.185
0.177
0.169
0.18
0.193
0.179
0.169
0.193
0.207
0.215
0.2
0.199
0.201
0.206
0.21
0.219
0.241
0.244
0.22
0.188
0.198
0.233
0.265
0.278
0.269
0.263
0.255
0.261
0.25
0.245
0.246
0.255
0.255
0.245
0.237
0.236
0.242
0.233
0.221
0.207
0.199
0.194
0.193
0.189
0.175
0.175
0.179
0.182
0.186
0.185
0.184
0.184
0.191
0.194
0.196
0.194
0.193
0.19
0.188
0.188
0.189
0.19
0.186
0.193
0.204
0.207
0.199
0.18
0.172
0.172
0.185
0.196
0.196
0.19
0.17
0.16
0.156
0.154
0.145
0.152
0.164
0.176
0.176
0.17
0.18
0.176
0.161
0.15
0.158
0.169
0.164
0.159
0.155
0.156
0.156
0.156
0.136
0.115
0.107
0.101
0.092
0.08
0.071
0.055
0.043
0.031
0.021
0.014
0.013
0.01
0.009
0.001
-0.016
-0.031
-0.028
-0.009
0.018
0.036
0.013
-0.068
-0.204
-0.396
-0.635
-0.892
-1.103
-1.259
-1.334
-1.364
-1.335
-1.305
-1.254
-1.208
-1.16
-1.091
-1.022
-0.921
-0.829
-0.728
-0.641
-0.547
-0.455
-0.376
-0.309
-0.249
-0.189
-0.142
-0.109
-0.089
-0.071
-0.056
-0.045
-0.029
-0.013
-0.01
-0.025
-0.033
-0.021
-0.007
-0.01
-0.011
-0.003
0.014
0.019
0.021
0.033
0.048
0.05
0.03
0.022
0.039
0.06
0.071
0.077
0.086
0.096
0.11
0.125
0.141
0.151
0.17
0.191
0.217
0.24
0.255
0.271
0.295
0.325
0.35
0.38
0.406
0.434
0.444
0.445
0.468
0.485
0.501
0.505
0.501
0.486
0.475
0.47
0.453
0.445
0.435
0.422
0.407
0.4
0.396
0.379
0.371
0.364
0.36
0.351
0.355
0.354
0.334
0.32
0.306
0.306
0.295
0.287
0.273
0.263
0.263
0.259
0.261
0.26
0.265
0.264
0.264
0.259
0.254
0.255
0.258
0.268
0.264
0.258
0.239
0.231
0.225
0.223
0.223
0.225
0.234
0.235
0.236
0.217
0.199
0.193
0.198
0.207
0.215
0.229
0.236
0.235
0.226
0.226
0.228
0.234
0.247
0.256
0.256
0.249
0.244
0.235
0.233
0.236
0.237
0.239
0.233
0.223
0.217
0.225
0.237
0.237
0.226
0.212
0.211
0.215
0.216
0.217
0.215
0.211
0.207
0.206
0.195
0.19
0.181
0.177
0.179
0.177
0.176
0.165
0.164
0.165
0.169
0.169
0.179
0.188
0.186
0.188
0.18
0.184
0.189
0.19
0.184
0.18
0.182
0.182
0.185
0.184
0.19
0.195
0.203
0.209
0.214
0.215
0.211
0.214
0.209
0.207
0.193
0.18
0.169
0.16
0.155
0.149
0.149
0.14
0.13
0.12
0.107
0.091
0.075
0.061
0.051
0.045
0.039
0.037
0.04
0.041
0.036
0.026
0.019
0.02
0.022
0.018
0.009
0.004
0.004
0.001
-0.001
0.001
0.007
0.004
-0.009
-0.019
-0.022
-0.021
-0.024
-0.016
-0.005
-0.013
-0.033
-0.045
-0.049
-0.049
-0.056
-0.071
-0.092
-0.109
-0.116
-0.117
-0.109
-0.079
-0.033
0.005
-0.014
-0.104
-0.246
-0.416
-0.652
-0.9
-1.114
-1.29
-1.356
-1.4
-1.364
-1.355
-1.306
-1.25
-1.192
-1.113
-1.058
-0.959
-0.882
-0.785
-0.706
-0.608
-0.505
-0.427
-0.36
-0.31
-0.253
-0.195
-0.133
-0.089
-0.065
-0.056
-0.048
-0.037
-0.028
-0.018
-0.005
0.015
0.035
0.046
0.059
0.079
0.095
0.106
0.119
0.14
0.163
0.172
0.182
0.189
0.205
0.219
0.229
0.234
0.231
0.217
0.2
0.211
0.233
0.256
0.26
0.266
0.28
0.287
0.291
0.287
0.299
0.296
0.301
0.302
0.312
0.325
0.333
0.341
0.333
0.34
0.339
0.34
0.34
0.341
0.349
0.351
0.36
0.356
0.365
0.36
0.362
0.362
0.36
0.356
0.352
0.356
0.35
0.349
0.339
0.329
0.315
0.301
0.292
0.28
0.273
0.255
0.241
0.224
0.21
0.195
0.182
0.17
0.155
0.145
0.131
0.124
0.116
0.113
0.109
0.105
0.111
0.117
0.12
0.117
0.113
0.111
0.115
0.121
0.109
0.1
0.1
0.105
0.11
0.111
0.114
0.111
0.119
0.117
0.107
0.094
0.086
0.085
0.074
0.062
0.05
0.048
0.044
0.043
0.039
0.033
0.024
0.014
0.009
0.005
0.003
-0.005
-0.021
-0.031
-0.039
-0.04
-0.045
-0.052
-0.058
-0.06
-0.059
-0.065
-0.068
-0.062
-0.06
-0.058
-0.059
-0.059
-0.061
-0.061
-0.056
-0.046
-0.035
-0.035
-0.055
-0.085
-0.101
-0.1
-0.09
-0.08
-0.076
-0.076
-0.079
-0.08
-0.085
-0.089
-0.09
-0.086
-0.081
-0.077
-0.07
-0.061
-0.048
-0.05
-0.066
-0.083
-0.085
-0.072
-0.055
-0.051
-0.065
-0.076
-0.096
-0.119
-0.131
-0.129
-0.125
-0.122
-0.116
-0.101
-0.08
-0.081
-0.105
-0.154
-0.186
-0.182
-0.168
-0.151
-0.155
-0.161
-0.17
-0.164
-0.145
-0.134
-0.155
-0.195
-0.205
-0.181
-0.135
-0.1
-0.091
-0.131
-0.231
-0.362
-0.514
-0.705
-0.945
-1.147
-1.301
-1.384
-1.391
-1.401
-1.369
-1.349
-1.288
-1.239
-1.175
-1.106
-1.03
-0.922
-0.821
-0.726
-0.686
-0.63
-0.55
-0.453
-0.376
-0.346
-0.314
-0.258
-0.184
-0.12
-0.083
-0.094
-0.138
-0.155
-0.125
-0.086
-0.084
-0.107
-0.107
-0.079
-0.052
-0.034
-0.02
-0.016
-0.021
-0.019
-0.013
-0.001
0.018
0.028
0.025
0.033
0.054
0.075
0.084
0.081
0.07
0.079
0.098
0.117
0.128
0.145
0.163
0.181
0.195
0.209
0.23
0.245
0.276
0.309
0.346
0.367
0.386
0.401
0.415
0.431
0.435
0.449
0.453
0.465
0.455
0.458
0.474
0.487
0.499
0.5
0.506
0.497
0.492
0.482
0.471
0.465
0.46
0.464
0.459
0.453
0.443
0.427
0.417
0.412
0.403
0.372
0.359
0.355
0.357
0.354
0.355
0.356
0.333
0.314
0.296
0.292
0.289
0.287
0.291
0.291
0.301
0.301
0.292
0.268
0.258
0.258
0.26
0.255
0.239
0.236
0.234
0.237
0.231
0.22
0.212
0.205
0.2
0.188
0.185
0.181
0.177
0.164
0.161
0.17
0.169
0.146
0.113
0.099
0.099
0.101
0.106
0.109
0.106
0.1
0.092
0.085
0.081
0.077
0.075
0.068
0.064
0.06
0.065
0.066
0.054
0.039
0.025
0.02
0.024
0.03
0.024
0.01
0.005
0.006
0.013
0.03
0.051
0.061
0.069
0.08
0.083
0.072
0.029
-0.064
-0.203
-0.403
-0.671
-0.906
-1.121
-1.244
-1.319
-1.317
-1.291
-1.26
-1.21
-1.181
-1.107
-1.061
-0.976
-0.891
-0.79
-0.695
-0.609
-0.502
-0.416
-0.334
-0.273
-0.201
-0.13
-0.056
-0.004
0.028
0.049
0.049
0.031
0.036
0.068
0.101
0.13
0.156
0.176
0.181
0.194
0.194
0.19
0.2
0.225
0.231
0.21
0.204
0.225
0.255
0.271
0.291
0.306
0.316
0.323
0.324
0.326
0.325
0.34
0.356
0.37
0.37
0.367
0.378
0.388
0.41
0.424
0.438
0.446
0.455
0.463
0.463
0.469
0.464
0.46
0.45
0.458
0.46
0.458
0.481
0.505
0.539
0.529
0.497
0.469
0.464
0.475
0.472
0.484
0.48
0.487
0.474
0.469
0.451
0.424
0.403
0.379
0.376
0.371
0.37
0.347
0.329
0.309
0.291
0.301
0.31
0.319
0.31
0.299
0.285
0.29
0.3
0.295
0.296
0.292
0.3
0.318
0.347
0.364
0.374
0.383
0.39
0.407
0.422
0.448
0.455
0.455
0.441
0.439
0.455
0.475
0.495
0.501
0.514
0.524
0.527
0.509
0.5
0.522
0.539
0.547
0.536
0.507
0.485
0.497
0.522
0.512
0.486
0.456
0.461
0.479
0.485
0.474
0.448
0.426
0.404
0.401
0.4
0.406
0.409
0.406
0.414
0.412
0.415
0.399
0.404
0.406
0.407
0.394
0.384
0.395
0.391
0.379
0.361
0.375
0.385
0.391
0.386
0.38
0.391
0.396
0.405
0.388
0.386
0.385
0.4
0.411
0.416
0.42
0.399
0.383
0.37
0.379
0.378
0.365
0.354
0.35
0.356
0.354
0.35
0.333
0.318
0.305
0.3
0.292
0.273
0.26
0.258
0.26
0.231
0.165
0.107
0.099
0.114
0.115
0.098
0.07
0.044
0.035
0.037
0.036
0.03
0.034
0.039
0.043
0.059
0.092
0.124
0.094
-0.01
-0.163
-0.385
-0.646
-0.932
-1.143
-1.302
-1.386
-1.38
-1.379
-1.317
-1.292
-1.235
-1.215
-1.165
-1.071
-0.976
-0.87
-0.794
-0.679
-0.569
-0.456
-0.388
-0.334
-0.278
-0.219
-0.165
-0.138
-0.113
-0.08
-0.045
-0.024
-0.013
-0.003
0.013
0.035
0.054
0.045
0.028
0.019
0.026
0.043
0.062
0.09
0.113
0.119
0.102
0.087
0.094
0.111
0.134
0.147
0.152
0.152
0.164
0.175
0.18
0.188
0.198
0.198
0.194
0.2
0.215
0.237
0.255
0.258
0.27
0.271
0.276
0.295
0.333
0.354
0.372
0.393
0.404
0.419
0.425
0.446
0.449
0.456
0.45
0.448
0.445
0.427
0.415
0.398
0.411
0.424
0.439
0.425
0.406
0.401
0.38
0.36
0.328
0.316
0.296
0.26
0.22
0.198
0.203
0.199
0.177
0.158
0.16
0.175
0.184
0.169
0.15
0.163
0.185
0.179
0.15
0.144
0.155
0.161
0.154
0.138
0.133
0.149
0.175
0.185
0.172
0.159
0.17
0.199
0.219
0.225
0.206
0.19
0.195
0.221
0.242
0.237
0.231
0.216
0.203
0.196
0.198
0.206
0.21
0.207
0.199
0.205
0.184
0.145
0.12
0.109
0.105
0.102
0.1
0.087
0.077
0.058
0.03
0.005
-0.011
-0.014
0
0.01
0.007
0.009
-0.004
-0.034
-0.068
-0.099
-0.107
-0.087
-0.062
-0.059
-0.076
-0.077
-0.066
-0.048
-0.049
-0.069
-0.07
-0.072
-0.1
-0.121
-0.12
-0.105
-0.083
-0.074
-0.092
-0.102
-0.104
-0.111
-0.119
-0.111
-0.117
-0.142
-0.149
-0.142
-0.136
-0.131
-0.116
-0.098
-0.099
-0.116
-0.12
-0.115
-0.104
-0.104
-0.125
-0.141
-0.142
-0.128
-0.114
-0.121
-0.129
-0.126
-0.122
-0.126
-0.122
-0.114
-0.09
-0.074
-0.086
-0.105
-0.106
-0.096
-0.104
-0.102
-0.095
-0.089
-0.077
-0.076
-0.081
-0.102
-0.121
-0.131
-0.13
-0.12
-0.105
-0.089
-0.089
-0.106
-0.116
-0.099
-0.086
-0.109
-0.141
-0.159
-0.145
-0.125
-0.104
-0.113
-0.139
-0.151
-0.133
-0.106
-0.113
-0.115
-0.091
-0.079
-0.129
-0.239
-0.385
-0.585
-0.829
-1.071
-1.246
-1.374
-1.416
-1.415
-1.399
-1.36
-1.33
-1.266
-1.211
-1.126
-1.035
-0.934
-0.815
-0.706
-0.601
-0.511
-0.424
-0.375
-0.354
-0.32
-0.258
-0.19
-0.13
-0.102
-0.109
-0.106
-0.092
-0.064
-0.039
-0.035
-0.048
-0.036
-0.005
0.013
0.013
0.019
0.041
0.074
0.101
0.116
0.134
0.146
0.16
0.182
0.205
0.209
0.196
0.207
0.235
0.259
0.256
0.254
0.249
0.25
0.265
0.284
0.297
0.284
0.281
0.289
0.314
0.334
0.344
0.351
0.352
0.364
0.371
0.384
0.38
0.375
0.376
0.38
0.388
0.403
0.432
0.445
0.438
0.403
0.376
0.383
0.401
0.411
0.396
0.391
0.381
0.367
0.357
0.356
0.365
0.359
0.349
0.326
0.315
0.3
0.286
0.295
0.3
0.286
0.237
0.206
0.205
0.21
0.201
0.201
0.217
0.221
0.236
0.234
0.219
0.199
0.193
0.185
0.172
0.185
0.206
0.228
0.226
0.212
0.19
0.174
0.175
0.193
0.214
0.207
0.185
0.172
0.184
0.198
0.214
0.219
0.205
0.19
0.177
0.186
0.2
0.217
0.228
0.22
0.207
0.195
0.201
0.207
0.206
0.203
0.209
0.217
0.214
0.206
0.201
0.2
0.19
0.179
0.171
0.166
0.164
0.163
0.156
0.138
0.122
0.128
0.163
0.215
0.247
0.22
0.11
-0.068
-0.289
-0.569
-0.853
-1.086
-1.256
-1.308
-1.325
-1.281
-1.25
-1.192
-1.154
-1.117
-1.071
-1.012
-0.906
-0.824
-0.73
-0.66
-0.562
-0.47
-0.384
-0.301
-0.245
-0.193
-0.141
-0.09
-0.04
-0.006
0.011
0.021
0.022
0.024
0.031
0.039
0.041
0.039
0.041
0.051
0.068
0.092
0.107
0.098
0.081
0.086
0.098
0.102
0.109
0.125
0.147
0.163
0.15
0.146
0.159
0.176
0.182
0.185
0.206
0.225
0.239
0.24
0.244
0.245
0.255
0.281
0.3
0.31
0.31
0.31
0.312
0.325
0.349
0.361
0.366
0.354
0.351
0.355
0.356
0.346
0.326
0.315
0.311
0.32
0.314
0.311
0.304
0.294
0.289
0.274
0.251
0.224
0.206
0.171
0.147
0.144
0.138
0.122
0.114
0.12
0.106
0.096
0.094
0.1
0.115
0.117
0.101
0.072
0.066
0.087
0.102
0.099
0.092
0.09
0.087
0.095
0.098
0.086
0.06
0.046
0.064
0.09
0.107
0.114
0.117
0.128
0.15
0.166
0.17
0.16
0.165
0.184
0.203
0.217
0.22
0.217
0.209
0.215
0.225
0.233
0.247
0.247
0.239
0.221
0.216
0.224
0.225
0.223
0.22
0.224
0.223
0.221
0.211
0.201
0.203
0.21
0.215
0.2
0.193
0.189
0.194
0.186
0.18
0.181
0.177
0.18
0.175
0.17
0.16
0.158
0.155
0.14
0.12
0.114
0.119
0.114
0.111
0.107
0.104
0.098
0.106
0.131
0.141
0.131
0.107
0.098
0.102
0.129
0.151
0.146
0.126
0.11
0.11
0.111
0.11
0.101
0.089
0.087
0.099
0.115
0.107
0.079
0.061
0.07
0.09
0.109
0.104
0.075
0.044
0.028
0.024
0.031
0.039
0.036
0.022
0.016
0.014
0.011
0.007
0
-0.016
-0.031
-0.029
-0.026
-0.02
-0.018
-0.01
0.001
0.006
0.007
0.006
0.004
0
0.004
0.019
0.02
-0.003
-0.016
0.001
0.019
0.024
0.024
0.034
0.044
0.052
0.064
0.062
0.044
0.028
0.025
0.025
0.015
0.009
0.014
0.022
0.031
0.046
0.055
0.054
0.051
0.059
0.052
0.039
0.026
0.018
0.007
-0.001
-0.006
-0.003
0.019
0.052
0.059
0.036
0.01
-0.006
-0.003
0.022
0.044
0.035
0.013
0.007
0.015
0.005
-0.015
-0.022
-0.02
-0.019
-0.039
-0.069
-0.084
-0.083
-0.072
-0.059
-0.044
-0.03
-0.041
-0.106
-0.219
-0.391
-0.641
-0.891
-1.137
-1.286
-1.385
-1.401
-1.386
-1.373
-1.315
-1.295
-1.215
-1.164
-1.083
-1.005
-0.912
-0.818
-0.739
-0.636
-0.551
-0.461
-0.398
-0.334
-0.27
-0.204
-0.141
-0.11
-0.101
-0.099
-0.076
-0.052
-0.039
-0.037
-0.035
-0.019
-0.013
-0.024
-0.022
-0.016
-0.011
-0.003
0.007
0.013
0.014
0.011
0.007
0.015
0.018
0.003
-0.013
-0.014
-0.005
-0.005
-0.018
-0.013
0.02
0.045
0.041
0.028
0.02
0.022
0.034
0.048
0.065
0.085
0.102
0.107
0.113
0.12
0.129
0.128
0.124
0.124
0.135
0.154
0.163
0.168
0.164
0.17
0.169
0.169
0.175
0.17
0.158
0.133
0.114
0.101
0.098
0.089
0.075
0.065
0.05
0.045
0.044
0.041
0.028
-0.001
-0.025
-0.035
-0.031
-0.04
-0.062
-0.072
-0.077
-0.075
-0.07
-0.054
-0.04
-0.036
-0.04
-0.055
-0.07
-0.074
-0.054
-0.04
-0.046
-0.05
-0.037
-0.029
-0.04
-0.052
-0.051
-0.037
-0.016
0.001
0.001
-0.013
-0.021
-0.009
0.019
0.051
0.071
0.061
0.049
0.046
0.059
0.066
0.077
0.089
0.091
0.092
0.075
0.049
0.034
0.034
0.037
0.033
0.024
0.026
0.036
0.031
0.021
0.019
0.029
0.036
0.034
0.03
0.028
0.03
0.031
0.028
0.024
0.02
0.016
0.011
0.014
0.019
0.02
0.019
0.025
0.029
0.028
0.021
0.013
0.018
0.029
0.029
0.022
0.02
0.022
0.02
0.025
0.024
0.01
0.003
0.014
0.031
0.04
0.03
0.014
0.001
0.006
0.011
0.013
0.01
-0.003
-0.02
-0.028
-0.024
-0.028
-0.033
-0.035
-0.036
-0.034
-0.03
-0.028
-0.033
-0.056
-0.071
-0.075
-0.077
-0.076
-0.071
-0.065
-0.069
-0.084
-0.107
-0.131
-0.138
-0.133
-0.121
-0.119
-0.12
-0.125
-0.138
-0.145
-0.151
-0.151
-0.149
-0.139
-0.139
-0.145
-0.15
-0.152
-0.15
-0.159
-0.172
-0.191
-0.186
-0.184
-0.19
-0.189
-0.174
-0.16
-0.169
-0.18
-0.185
-0.18
-0.169
-0.154
-0.147
-0.16
-0.172
-0.188
-0.191
-0.189
-0.175
-0.165
-0.169
-0.172
-0.177
-0.184
-0.198
-0.206
-0.21
-0.193
-0.17
-0.15
-0.126
-0.139
-0.215
-0.343
-0.515
-0.735
-0.978
-1.165
-1.31
-1.359
-1.374
-1.347
-1.315
-1.285
-1.254
-1.212
-1.129
-1.069
-1.008
-0.946
-0.848
-0.748
-0.652
-0.552
-0.469
-0.4
-0.36
-0.311
-0.26
-0.196
-0.141
-0.092
-0.051
-0.034
-0.041
-0.041
-0.018
0.009
0.02
0.021
0.025
0.034
0.05
0.066
0.074
0.07
0.07
0.085
0.102
0.105
0.098
0.102
0.099
0.085
0.077
0.09
0.104
0.121
0.131
0.115
0.102
0.105
0.115
0.122
0.131
0.141
0.142
0.146
0.151
0.164
0.18
0.196
0.206
0.214
0.22
0.228
0.236
0.236
0.234
0.23
0.234
0.241
0.244
0.247
0.258
0.268
0.25
0.221
0.204
0.212
0.233
0.228
0.211
0.201
0.201
0.189
0.165
0.151
0.139
0.13
0.114
0.107
0.11
0.105
0.09
0.072
0.071
0.068
0.07
0.058
0.037
0.019
0.004
0
0.01
0.03
0.036
0.035
0.031
0.031
0.035
0.043
0.064
0.079
0.089
0.081
0.06
0.054
0.069
0.079
0.077
0.07
0.075
0.085
0.085
0.09
0.095
0.1
0.109
0.121
0.124
0.117
0.125
0.13
0.117
0.095
0.089
0.101
0.119
0.125
0.117
0.111
0.11
0.116
0.12
0.114
0.106
0.099
0.095
0.098
0.1
0.102
0.094
0.087
0.091
0.099
0.096
0.096
0.095
0.099
0.101
0.104
0.096
0.083
0.089
0.096
0.099
0.094
0.094
0.101
0.1
0.095
0.086
0.084
0.081
0.09
0.096
0.099
0.09
0.079
0.083
0.085
0.08
0.079
0.085
0.085
0.077
0.075
0.076
0.077
0.068
0.058
0.06
0.058
0.044
0.031
0.034
0.046
0.055
0.071
0.106
0.145
0.146
0.081
-0.03
-0.191
-0.41
-0.666
-0.895
-1.081
-1.189
-1.225
-1.216
-1.183
-1.15
-1.1
-1.06
-0.995
-0.927
-0.839
-0.738
-0.646
-0.561
-0.48
-0.383
-0.294
-0.212
-0.149
-0.089
-0.033
0.018
0.06
0.099
0.125
0.14
0.145
0.15
0.168
0.186
0.206
0.214
0.225
0.231
0.245
0.253
0.249
0.263
0.282
0.309
0.307
0.315
0.31
0.318
0.338
0.354
0.349
0.333
0.351
0.365
0.378
0.376
0.396
0.429
0.45
0.463
0.456
0.45
0.445
0.468
0.48
0.487
0.504
0.524
0.537
0.544
0.56
0.557
0.554
0.536
0.517
0.519
0.535
0.549
0.526
0.501
0.494
0.52
0.545
0.534
0.517
0.499
0.492
0.489
0.497
0.504
0.504
0.51
0.494
0.471
0.448
0.448
0.45
0.439
0.422
0.415
0.435
0.439
0.44
0.417
0.398
0.372
0.347
0.33
0.329
0.351
0.351
0.341
0.329
0.336
0.345
0.34
0.343
0.339
0.345
0.336
0.34
0.34
0.351
0.36
0.359
0.355
0.344
0.355
0.357
0.365
0.364
0.36
0.359
0.367
0.39
0.406
0.415
0.386
0.371
0.384
0.398
0.386
0.37
0.37
0.36
0.351
0.341
0.339
0.339
0.336
0.335
0.334
0.343
0.352
0.374
0.374
0.331
0.284
0.268
0.284
0.297
0.305
0.302
0.305
0.31
0.297
0.278
0.26
0.261
0.256
0.255
0.251
0.261
0.284
0.292
0.302
0.301
0.294
0.265
0.258
0.271
0.278
0.266
0.253
0.25
0.251
0.271
0.275
0.274
0.275
0.27
0.251
0.226
0.22
0.215
0.229
0.241
0.251
0.253
0.237
0.223
0.22
0.237
0.244
0.245
0.23
0.207
0.199
0.217
0.246
0.251
0.241
0.209
0.191
0.198
0.221
0.245
0.246
0.224
0.198
0.205
0.236
0.264
0.274
0.278
0.276
0.242
0.203
0.19
0.209
0.219
0.219
0.224
0.224
0.233
0.242
0.246
0.234
0.219
0.19
0.176
0.186
0.191
0.2
0.205
0.216
0.215
0.205
0.204
0.194
0.193
0.193
0.203
0.207
0.216
0.223
0.214
0.199
0.177
0.168
0.171
0.185
0.193
0.204
0.206
0.198
0.196
0.2
0.214
0.224
0.236
0.239
0.239
0.23
0.215
0.215
0.215
0.221
0.224
0.239
0.24
0.23
0.22
0.221
0.24
0.247
0.25
0.249
0.26
0.258
0.251
0.258
0.266
0.266
0.261
0.273
0.296
0.323
0.34
0.334
0.328
0.325
0.33
0.336
0.355
0.375
0.372
0.366
0.372
0.381
0.375
0.386
0.398
0.396
0.393
0.396
0.414
0.412
0.411
0.401
0.403
0.403
0.395
0.381
0.369
0.379
0.369
0.36
0.34
0.334
0.33
0.328
0.32
0.295
0.276
0.253
0.231
0.21
0.193
0.172
0.15
0.138
0.121
0.107
0.094
0.079
0.061
0.045
0.044
0.066
0.111
0.151
0.138
0.049
-0.071
-0.23
-0.456
-0.725
-0.965
-1.156
-1.279
-1.355
-1.35
-1.341
-1.291
-1.238
-1.184
-1.113
-1.051
-0.956
-0.864
-0.762
-0.695
-0.623
-0.521
-0.419
-0.336
-0.287
-0.239
-0.189
-0.138
-0.089
-0.05
-0.035
-0.035
-0.037
-0.034
-0.026
-0.024
-0.02
-0.016
-0.011
-0.006
-0.003
0.005
0.011
0.018
0.02
0.025
0.028
0.033
0.037
0.046
0.049
0.05
0.058
0.064
0.071
0.077
0.083
0.08
0.079
0.084
0.094
0.1
0.099
0.104
0.106
0.111
0.114
0.121
0.128
0.13
0.134
0.135
0.136
0.138
0.139
0.14
0.142
0.144
0.147
0.154
0.159
0.164
0.166
0.171
0.17
0.175
0.179
0.18
0.18
0.179
0.176
0.172
0.169
0.156
0.139
0.125
0.119
0.12
0.117
0.114
0.098
0.079
0.075
0.077
0.07
0.048
0.03
0.019
0.011
0.011
0.019
0.03
0.028
0.02
0.015
0.014
0.007
0.004
0.013
0.02
0.016
0.005
0.005
0.007
0.014
0.021
0.025
0.026
0.021
0.021
0.024
0.03
0.037
0.045
0.051
0.056
0.062
0.061
0.062
0.066
0.072
0.071
0.077
0.089
0.099
0.091
0.077
0.077
0.086
0.091
0.09
0.084
0.075
0.065
0.055
0.05
0.034
0.009
-0.01
-0.014
-0.02
-0.039
-0.05
-0.059
-0.065
-0.072
-0.077
-0.084
-0.085
-0.089
-0.09
-0.089
-0.089
-0.089
-0.087
-0.091
-0.111
-0.129
-0.128
-0.121
-0.124
-0.125
-0.122
-0.12
-0.122
-0.138
-0.151
-0.155
-0.158
-0.155
-0.156
-0.159
-0.17
-0.172
-0.175
-0.181
-0.182
-0.18
-0.176
-0.185
-0.19
-0.198
-0.199
-0.201
-0.204
-0.203
-0.209
-0.21
-0.214
-0.196
-0.186
-0.18
-0.182
-0.188
-0.188
-0.189
-0.198
-0.219
-0.226
-0.231
-0.23
-0.223
-0.21
-0.19
-0.186
-0.193
-0.203
-0.201
-0.199
-0.199
-0.203
-0.212
-0.216
-0.21
-0.199
-0.196
-0.198
-0.198
-0.2
-0.2
-0.206
-0.214
-0.219
-0.212
-0.205
-0.203
-0.2
-0.204
-0.206
-0.205
-0.191
-0.184
-0.185
-0.193
-0.203
-0.203
-0.205
-0.203
-0.195
-0.163
-0.135
-0.169
-0.294
-0.46
-0.645
-0.879
-1.054
-1.216
-1.298
-1.339
-1.349
-1.315
-1.299
-1.239
-1.215
-1.136
-1.076
-1
-0.919
-0.843
-0.754
-0.689
-0.595
-0.525
-0.46
-0.417
-0.361
-0.29
-0.233
-0.195
-0.184
-0.163
-0.142
-0.125
-0.107
-0.086
-0.071
-0.061
-0.041
-0.018
0.01
0.031
0.054
0.068
0.084
0.109
0.133
0.144
0.147
0.149
0.15
0.161
0.176
0.186
0.182
0.18
0.184
0.19
0.191
0.188
0.186
0.191
0.2
0.21
0.215
0.209
0.2
0.201
0.215
0.233
0.24
0.258
0.269
0.28
0.276
0.274
0.281
0.282
0.297
0.304
0.319
0.318
0.315
0.31
0.32
0.338
0.339
0.339
0.319
0.31
0.302
0.316
0.335
0.34
0.32
0.28
0.26
0.249
0.239
0.201
0.169
0.164
0.156
0.13
0.084
0.058
0.054
0.05
0.036
0.02
0.009
-0.001
0.001
0.001
-0.006
-0.013
-0.02
-0.03
-0.04
-0.045
-0.045
-0.035
-0.022
-0.016
-0.014
-0.013
-0.016
-0.021
-0.024
-0.02
-0.016
-0.016
-0.016
-0.007
-0.001
0
-0.007
-0.015
-0.021
-0.02
-0.01
0.003
0
-0.011
-0.014
-0.01
-0.015
-0.021
-0.018
-0.013
-0.018
-0.025
-0.029
-0.026
-0.02
-0.01
-0.006
-0.016
-0.031
-0.046
-0.046
-0.045
-0.044
-0.045
-0.048
-0.051
-0.055
-0.058
-0.065
-0.076
-0.085
-0.085
-0.068
-0.062
-0.056
-0.034
-0.005
-0.011
-0.079
-0.193
-0.351
-0.57
-0.815
-1.012
-1.166
-1.245
-1.244
-1.226
-1.18
-1.157
-1.107
-1.067
-1.006
-0.938
-0.869
-0.787
-0.711
-0.621
-0.542
-0.458
-0.378
-0.305
-0.26
-0.219
-0.158
-0.096
-0.05
-0.033
-0.029
-0.021
-0.005
0.009
0.02
0.028
0.034
0.045
0.054
0.065
0.072
0.083
0.087
0.091
0.099
0.111
0.12
0.125
0.133
0.139
0.146
0.147
0.152
0.163
0.177
0.191
0.2
0.217
0.22
0.221
0.22
0.239
0.251
0.268
0.28
0.285
0.295
0.311
0.336
0.343
0.354
0.361
0.375
0.381
0.384
0.394
0.395
0.405
0.404
0.409
0.404
0.404
0.409
0.42
0.419
0.389
0.375
0.367
0.35
0.328
0.325
0.329
0.323
0.319
0.301
0.285
0.271
0.251
0.216
0.177
0.174
0.193
0.207
0.195
0.185
0.188
0.191
0.2
0.193
0.19
0.195
0.199
0.177
0.158
0.166
0.188
0.22
0.231
0.224
0.211
0.234
0.264
0.281
0.291
0.312
0.343
0.338
0.311
0.287
0.297
0.324
0.345
0.35
0.325
0.302
0.292
0.323
0.349
0.354
0.328
0.29
0.258
0.231
0.234
0.244
0.265
0.279
0.28
0.27
0.27
0.29
0.296
0.28
0.254
0.255
0.255
0.236
0.225
0.231
0.234
0.212
0.207
0.224
0.244
0.237
0.216
0.204
0.19
0.177
0.17
0.177
0.188
0.19
0.174
0.154
0.155
0.163
0.17
0.168
0.156
0.147
0.141
0.14
0.128
0.117
0.11
0.119
0.13
0.131
0.13
0.126
0.129
0.125
0.117
0.095
0.077
0.075
0.086
0.117
0.159
0.189
0.144
0.018
-0.152
-0.371
-0.618
-0.876
-1.081
-1.212
-1.301
-1.294
-1.301
-1.256
-1.23
-1.176
-1.101
-1.036
-0.943
-0.871
-0.77
-0.688
-0.586
-0.495
-0.401
-0.311
-0.244
-0.188
-0.131
-0.061
-0.001
0.043
0.066
0.072
0.074
0.083
0.095
0.1
0.096
0.098
0.116
0.144
0.166
0.168
0.161
0.158
0.165
0.171
0.172
0.176
0.185
0.204
0.217
0.229
0.226
0.221
0.226
0.241
0.263
0.268
0.275
0.276
0.29
0.301
0.311
0.316
0.319
0.33
0.315
0.321
0.338
0.367
0.384
0.395
0.404
0.407
0.431
0.443
0.458
0.455
0.464
0.464
0.455
0.449
0.436
0.438
0.431
0.438
0.438
0.446
0.431
0.412
0.417
0.43
0.439
0.416
0.403
0.399
0.391
0.364
0.352
0.364
0.364
0.357
0.341
0.34
0.341
0.347
0.343
0.319
0.31
0.316
0.328
0.326
0.326
0.336
0.352
0.369
0.366
0.362
0.35
0.338
0.331
0.324
0.324
0.323
0.334
0.339
0.338
0.321
0.309
0.312
0.321
0.329
0.323
0.325
0.319
0.311
0.307
0.33
0.356
0.362
0.357
0.336
0.323
0.278
0.217
0.16
0.105
0.064
0.018
-0.02
-0.037
-0.028
0.034
0.129
0.225
0.311
0.38
0.404
0.376
0.289
0.193
0.096
0.054
0.079
0.11
0.113
0.106
0.115
0.14
0.155
0.15
0.141
0.136
0.138
0.135
0.117
0.113
0.109
0.104
0.113
0.122
0.122
0.12
0.121
0.12
0.117
0.115
0.115
0.11
0.106
0.114
0.121
0.124
0.11
0.085
0.075
0.08
0.086
0.084
0.085
0.086
0.089
0.087
0.072
0.062
0.06
0.061
0.045
0.021
0.007
0.003
-0.001
-0.005
-0.007
-0.016
-0.019
-0.03
-0.06
-0.083
-0.085
-0.086
-0.105
-0.117
-0.115
-0.11
-0.119
-0.141
-0.147
-0.15
-0.131
-0.115
-0.102
-0.091
-0.087
-0.099
-0.119
-0.12
-0.104
-0.079
-0.052
-0.033
-0.015
-0.007
-0.003
0.005
0.019
0.04
0.07
0.098
0.114
0.113
0.114
0.12
0.133
0.141
0.164
0.198
0.215
0.214
0.195
0.185
0.191
0.203
0.206
0.201
0.196
0.186
0.189
0.188
0.19
0.205
0.23
0.245
0.23
0.224
0.231
0.255
0.275
0.28
0.274
0.27
0.28
0.282
0.302
0.305
0.304
0.299
0.297
0.295
0.289
0.287
0.28
0.284
0.281
0.291
0.284
0.265
0.26
0.264
0.273
0.26
0.26
0.264
0.271
0.275
0.266
0.258
0.254
0.255
0.244
0.24
0.231
0.231
0.239
0.244
0.241
0.23
0.223
0.225
0.242
0.245
0.23
0.21
0.204
0.203
0.198
0.196
0.194
0.188
0.18
0.18
0.19
0.196
0.2
0.195
0.189
0.179
0.171
0.17
0.169
0.166
0.164
0.165
0.163
0.161
0.156
0.149
0.145
0.138
0.134
0.113
0.1
0.107
0.129
0.145
0.149
0.151
0.139
0.135
0.131
0.126
0.122
0.126
0.136
0.134
0.129
0.115
0.104
0.09
0.087
0.099
0.107
0.105
0.096
0.094
0.094
0.095
0.085
0.071
0.068
0.07
0.065
0.056
0.052
0.035
0.019
0.018
0.02
0.02
0.016
0.016
0.019
0.021
0.018
0.021
0.04
0.051
0.048
0.035
0.034
0.046
0.058
0.055
0.052
0.051
0.045
0.039
0.035
0.033
0.033
0.03
0.025
0.025
0.033
0.037
0.036
0.029
0.02
0.013
0.01
0.011
0.009
-0.001
-0.007
-0.001
0.006
0.009
-0.003
-0.022
-0.025
-0.016
-0.011
-0.01
-0.013
-0.01
-0.011
-0.011
-0.016
-0.009
0.001
0.004
0.004
0.004
0.005
0.009
0.02
0.035
0.031
0.011
0.003
0.01
0.011
0.004
0.004
0.009
0.009
0.011
0.021
0.03
0.025
0.018
0.011
0.02
0.033
0.03
0.015
0.006
0.003
0.003
0
-0.003
-0.004
-0.004
0
0.001
0
0.004
0.01
0.016
0.024
0.031
0.037
0.033
0.028
0.026
0.029
0.03
0.024
0.021
0.022
0.029
0.03
0.028
0.028
0.025
0.02
0.022
0.03
0.029
0.024
0.021
0.024
0.028
0.03
0.034
0.033
0.029
0.028
0.029
0.028
0.028
0.029
0.02
0.013
0.01
0.019
0.022
0.029
0.035
0.037
0.033
0.03
0.035
0.045
0.058
0.064
0.064
0.058
0.06
0.074
0.087
0.087
0.084
0.085
0.09
0.092
0.086
0.089
0.098
0.102
0.094
0.081
0.077
0.083
0.089
0.089
0.084
0.07
0.062
0.07
0.072
0.066
0.051
0.037
0.035
0.037
0.035
0.022
0.015
0.01
0.014
0.021
0.028
0.024
0.013
0.005
-0.004
-0.019
-0.03
-0.033
-0.031
-0.035
-0.044
-0.039
-0.005
0.035
0.04
-0.022
-0.146
-0.304
-0.525
-0.777
-0.981
-1.163
-1.245
-1.308
-1.295
-1.28
-1.245
-1.19
-1.16
-1.085
-1.04
-0.953
-0.882
-0.787
-0.699
-0.616
-0.522
-0.445
-0.369
-0.316
-0.254
-0.191
-0.133
-0.091
-0.07
-0.05
-0.034
-0.019
-0.01
-0.004
-0.005
-0.009
-0.005
0.01
0.031
0.044
0.05
0.055
0.068
0.079
0.085
0.075
0.064
0.077
0.104
0.113
0.105
0.101
0.115
0.149
0.161
0.155
0.141
0.135
0.138
0.146
0.163
0.169
0.181
0.188
0.204
0.214
0.214
0.206
0.195
0.196
0.21
0.239
0.255
0.269
0.266
0.266
0.268
0.271
0.274
0.265
0.266
0.26
0.259
0.251
0.239
0.234
0.228
0.217
0.194
0.184
0.179
0.179
0.17
0.154
0.144
0.134
0.124
0.107
0.095
0.089
0.08
0.059
0.04
0.031
0.029
0.028
0.024
0.016
0.005
-0.003
-0.005
-0.003
-0.004
-0.009
-0.009
-0.003
0.004
0.004
0.001
0.01
0.021
0.03
0.028
0.02
0.015
0.021
0.036
0.051
0.056
0.051
0.044
0.044
0.052
0.061
0.077
0.101
0.113
0.111
0.089
0.066
0.069
0.086
0.107
0.11
0.109
0.106
0.105
0.091
0.079
0.076
0.084
0.091
0.087
0.081
0.079
0.081
0.079
0.077
0.089
0.096
0.09
0.074
0.066
0.061
0.064
0.071
0.077
0.076
0.075
0.077
0.076
0.074
0.069
0.062
0.054
0.044
0.048
0.054
0.058
0.061
0.064
0.056
0.048
0.046
0.048
0.049
0.05
0.048
0.045
0.045
0.045
0.048
0.058
0.069
0.066
0.046
0.033
0.035
0.041
0.046
0.049
0.044
0.044
0.052
0.065
0.074
0.064
0.046
0.04
0.041
0.045
0.049
0.058
0.065
0.066
0.064
0.054
0.048
0.045
0.054
0.056
0.055
0.052
0.052
0.051
0.044
0.039
0.037
0.035
0.029
0.02
0.015
0.013
0.014
0.018
0.02
0.024
0.026
0.029
0.031
0.035
0.035
0.033
0.03
0.03
0.03
0.036
0.045
0.05
0.049
0.049
0.056
0.066
0.076
0.068
0.05
0.051
0.068
0.07
0.06
0.052
0.054
0.056
0.049
0.045
0.048
0.048
0.045
0.037
0.033
0.034
0.04
0.036
0.024
0.02
0.028
0.043
0.058
0.062
0.058
0.055
0.056
0.061
0.068
0.079
0.089
0.083
0.072
0.065
0.075
0.087
0.1
0.105
0.106
0.122
0.135
0.142
0.147
0.165
0.177
0.184
0.193
0.2
0.211
0.22
0.236
0.245
0.26
0.26
0.249
0.236
0.226
0.219
0.2
0.195
0.196
0.194
0.175
0.156
0.14
0.134
0.129
0.12
0.11
0.098
0.09
0.086
0.087
0.085
0.076
0.074
0.072
0.07
0.07
0.07
0.062
0.055
0.048
0.037
0.033
0.031
0.026
0.019
0.011
0.005
-0.004
-0.007
-0.006
-0.006
-0.009
-0.016
-0.015
-0.02
-0.025
-0.04
-0.058
-0.064
-0.058
-0.04
-0.007
0.021
0.004
-0.075
-0.2
-0.381
-0.594
-0.851
-1.059
-1.218
-1.316
-1.319
-1.327
-1.278
-1.259
-1.201
-1.156
-1.081
-0.991
-0.93
-0.839
-0.77
-0.666
-0.586
-0.49
-0.419
-0.372
-0.326
-0.273
-0.206
-0.159
-0.125
-0.111
-0.104
-0.096
-0.089
-0.071
-0.061
-0.059
-0.056
-0.041
-0.026
-0.022
-0.02
-0.013
-0.003
0
-0.001
-0.001
-0.001
0.003
0.015
0.025
0.025
0.02
0.021
0.025
0.031
0.039
0.043
0.045
0.041
0.046
0.06
0.069
0.071
0.069
0.071
0.071
0.083
0.087
0.089
0.089
0.095
0.113
0.133
0.147
0.144
0.145
0.147
0.158
0.155
0.147
0.142
0.145
0.156
0.156
0.155
0.146
0.145
0.14
0.141
0.145
0.147
0.141
0.124
0.109
0.1
0.109
0.114
0.105
0.096
0.091
0.087
0.079
0.072
0.064
0.056
0.054
0.055
0.058
0.058
0.044
0.03
0.033
0.044
0.048
0.044
0.044
0.045
0.044
0.05
0.056
0.056
0.056
0.061
0.065
0.06
0.058
0.055
0.056
0.056
0.059
0.062
0.08
0.098
0.096
0.085
0.083
0.095
0.107
0.113
0.126
0.13
0.136
0.136
0.139
0.134
0.121
0.114
0.113
0.12
0.128
0.138
0.13
0.119
0.115
0.129
0.136
0.129
0.114
0.107
0.115
0.121
0.126
0.114
0.095
0.089
0.099
0.107
0.113
0.119
0.115
0.109
0.098
0.089
0.091
0.095
0.099
0.095
0.098
0.098
0.095
0.089
0.092
0.102
0.106
0.099
0.083
0.081
0.09
0.089
0.072
0.058
0.044
0.029
0.02
0.015
0.01
0.003
-0.005
-0.01
-0.018
-0.026
-0.033
-0.036
-0.04
-0.044
-0.048
-0.045
-0.041
-0.046
-0.054
-0.059
-0.064
-0.065
-0.077
-0.085
-0.092
-0.086
-0.074
-0.072
-0.08
-0.095
-0.107
-0.114
-0.114
-0.113
-0.121
-0.122
-0.121
-0.096
-0.065
-0.039
-0.059
-0.136
-0.259
-0.419
-0.616
-0.85
-1.036
-1.199
-1.275
-1.282
-1.286
-1.25
-1.231
-1.171
-1.131
-1.058
-0.976
-0.885
-0.785
-0.711
-0.629
-0.557
-0.47
-0.404
-0.346
-0.3
-0.251
-0.2
-0.152
-0.116
-0.098
-0.083
-0.07
-0.06
-0.05
-0.043
-0.035
-0.028
-0.015
-0.01
-0.003
0.007
0.019
0.019
0.022
0.03
0.043
0.054
0.061
0.07
0.072
0.079
0.087
0.098
0.105
0.115
0.12
0.128
0.138
0.141
0.151
0.155
0.164
0.168
0.181
0.196
0.21
0.228
0.244
0.266
0.28
0.296
0.309
0.33
0.351
0.365
0.375
0.37
0.38
0.384
0.399
0.401
0.405
0.406
0.41
0.42
0.415
0.414
0.396
0.393
0.385
0.381
0.379
0.374
0.374
0.361
0.352
0.335
0.321
0.309
0.302
0.306
0.3
0.285
0.256
0.237
0.225
0.223
0.229
0.233
0.23
0.223
0.226
0.236
0.245
0.244
0.24
0.242
0.235
0.234
0.226
0.224
0.235
0.255
0.264
0.258
0.256
0.25
0.254
0.253
0.258
0.254
0.251
0.261
0.271
0.281
0.278
0.279
0.274
0.284
0.289
0.285
0.282
0.282
0.294
0.287
0.276
0.258
0.242
0.228
0.219
0.228
0.235
0.241
0.24
0.244
0.237
0.233
0.229
0.228
0.231
0.235
0.244
0.244
0.249
0.247
0.246
0.247
0.258
0.266
0.253
0.234
0.219
0.22
0.217
0.21
0.195
0.17
0.15
0.136
0.13
0.13
0.124
0.113
0.098
0.085
0.071
0.066
0.066
0.072
0.072
0.064
0.058
0.054
0.059
0.061
0.059
0.05
0.045
0.05
0.045
0.036
0.03
0.034
0.041
0.039
0.035
0.028
0.028
0.029
0.031
0.026
0.022
0.026
0.031
0.033
0.024
0.019
0.018
0.013
0.005
-0.001
-0.001
-0.001
-0.009
-0.019
-0.028
-0.031
-0.036
-0.045
-0.05
-0.052
-0.056
-0.058
-0.048
-0.007
0.041
0.039
-0.037
-0.16
-0.325
-0.535
-0.787
-1.002
-1.173
-1.265
-1.31
-1.294
-1.27
-1.235
-1.186
-1.14
-1.069
-1.005
-0.915
-0.828
-0.734
-0.647
-0.556
-0.463
-0.37
-0.291
-0.247
-0.214
-0.17
-0.125
-0.081
-0.046
-0.024
-0.001
0.02
0.03
0.026
0.025
0.035
0.044
0.05
0.048
0.06
0.077
0.094
0.104
0.107
0.115
0.125
0.138
0.134
0.131
0.139
0.149
0.155
0.165
0.181
0.205
0.228
0.24
0.258
0.265
0.276
0.286
0.3
0.319
0.338
0.36
0.375
0.399
0.405
0.405
0.406
0.417
0.444
0.471
0.497
0.494
0.487
0.482
0.49
0.499
0.504
0.512
0.507
0.511
0.511
0.516
0.52
0.516
0.51
0.491
0.495
0.49
0.476
0.464
0.461
0.461
0.44
0.426
0.415
0.422
0.41
0.395
0.381
0.378
0.378
0.361
0.359
0.347
0.349
0.339
0.346
0.35
0.341
0.335
0.321
0.318
0.304
0.299
0.287
0.289
0.299
0.306
0.318
0.312
0.311
0.302
0.306
0.318
0.339
0.355
0.351
0.359
0.362
0.367
0.362
0.371
0.378
0.385
0.388
0.372
0.356
0.344
0.357
0.372
0.394
0.405
0.395
0.375
0.36
0.365
0.367
0.365
0.36
0.355
0.359
0.369
0.383
0.372
0.36
0.352
0.356
0.357
0.343
0.33
0.309
0.292
0.278
0.282
0.289
0.284
0.278
0.26
0.251
0.236
0.231
0.229
0.219
0.193
0.179
0.19
0.195
0.19
0.168
0.147
0.135
0.138
0.141
0.142
0.142
0.139
0.126
0.098
0.081
0.083
0.085
0.086
0.086
0.087
0.083
0.074
0.066
0.06
0.044
0.026
0.015
0.007
0.005
0.006
0.009
0.016
0.021
0.021
0.02
0.02
0.033
0.065
0.104
0.106
0.031
-0.109
-0.305
-0.531
-0.791
-1.012
-1.196
-1.3
-1.343
-1.343
-1.321
-1.292
-1.245
-1.212
-1.139
-1.061
-0.958
-0.855
-0.752
-0.652
-0.56
-0.456
-0.367
-0.287
-0.221
-0.158
-0.096
-0.045
-0.011
0.018
0.039
0.05
0.054
0.069
0.086
0.087
0.09
0.102
0.12
0.129
0.142
0.15
0.156
0.164
0.18
0.201
0.22
0.237
0.236
0.236
0.233
0.234
0.242
0.259
0.276
0.282
0.291
0.289
0.291
0.29
0.307
0.335
0.36
0.378
0.379
0.385
0.39
0.41
0.427
0.432
0.427
0.425
0.438
0.446
0.461
0.461
0.463
0.48
0.507
0.541
0.552
0.564
0.569
0.585
0.6
0.604
0.614
0.614
0.627
0.624
0.629
0.616
0.6
0.585
0.575
0.57
0.542
0.534
0.515
0.516
0.512
0.499
0.471
0.435
0.426
0.419
0.436
0.438
0.429
0.4
0.378
0.374
0.359
0.352
0.341
0.347
0.35
0.364
0.366
0.365
0.357
0.34
0.331
0.328
0.347
0.366
0.385
0.38
0.365
0.364
0.361
0.364
0.355
0.361
0.371
0.379
0.37
0.357
0.364
0.372
0.379
0.369
0.359
0.355
0.357
0.365
0.366
0.364
0.35
0.34
0.331
0.326
0.32
0.31
0.304
0.295
0.295
0.289
0.289
0.291
0.292
0.292
0.273
0.255
0.249
0.255
0.254
0.249
0.251
0.244
0.241
0.244
0.264
0.263
0.251
0.233
0.233
0.249
0.264
0.285
0.282
0.269
0.247
0.249
0.258
0.26
0.261
0.258
0.265
0.261
0.26
0.258
0.255
0.246
0.244
0.246
0.239
0.219
0.199
0.201
0.209
0.215
0.207
0.193
0.182
0.186
0.196
0.196
0.194
0.181
0.17
0.163
0.164
0.175
0.18
0.18
0.179
0.177
0.175
0.176
0.177
0.165
0.139
0.115
0.102
0.095
0.09
0.095
0.119
0.151
0.15
0.076
-0.055
-0.223
-0.434
-0.695
-0.961
-1.156
-1.315
-1.357
-1.379
-1.351
-1.329
-1.292
-1.242
-1.199
-1.11
-1.036
-0.925
-0.845
-0.76
-0.681
-0.585
-0.48
-0.404
-0.341
-0.302
-0.241
-0.185
-0.139
-0.106
-0.085
-0.071
-0.058
-0.037
-0.026
-0.02
-0.02
-0.013
-0.009
-0.013
-0.013
-0.01
-0.011
-0.013
-0.001
0.015
0.024
0.021
0.014
0.009
0.011
0.016
0.018
0.005
-0.009
-0.006
0.014
0.035
0.045
0.055
0.069
0.087
0.107
0.13
0.159
0.177
0.198
0.212
0.235
0.256
0.274
0.297
0.321
0.347
0.352
0.361
0.367
0.376
0.376
0.364
0.36
0.349
0.356
0.349
0.34
0.319
0.312
0.312
0.296
0.282
0.264
0.255
0.235
0.216
0.201
0.204
0.205
0.184
0.159
0.145
0.15
0.14
0.12
0.102
0.101
0.111
0.117
0.119
0.113
0.11
0.098
0.085
0.086
0.096
0.095
0.075
0.055
0.055
0.065
0.074
0.077
0.081
0.077
0.065
0.068
0.077
0.064
0.039
0.028
0.035
0.046
0.052
0.045
0.03
0.024
0.028
0.036
0.029
0.016
0.016
0.02
0.031
0.041
0.046
0.044
0.035
0.035
0.029
0.022
0.019
0.024
0.031
0.04
0.04
0.025
0.013
0.01
0.005
-0.01
-0.025
-0.025
-0.015
0.003
-0.001
-0.009
-0.009
-0.001
-0.005
-0.011
-0.006
-0.003
-0.011
-0.036
-0.058
-0.066
-0.064
-0.051
-0.051
-0.058
-0.069
-0.062
-0.044
-0.03
-0.026
-0.034
-0.039
-0.041
-0.033
-0.019
-0.009
-0.01
-0.019
-0.016
-0.011
-0.016
-0.02
-0.02
-0.019
-0.029
-0.043
-0.044
-0.029
-0.016
-0.028
-0.051
-0.058
-0.044
-0.043
-0.06
-0.075
-0.066
-0.05
-0.04
-0.049
-0.062
-0.075
-0.08
-0.08
-0.083
-0.087
-0.086
-0.079
-0.081
-0.086
-0.077
-0.069
-0.065
-0.074
-0.079
-0.076
-0.069
-0.066
-0.066
-0.061
-0.062
-0.059
-0.052
-0.044
-0.045
-0.045
-0.045
-0.048
-0.045
-0.041
-0.037
-0.046
-0.059
-0.072
-0.079
-0.062
-0.044
-0.037
-0.046
-0.055
-0.056
-0.046
-0.036
-0.036
-0.045
-0.055
-0.068
-0.08
-0.085
-0.084
-0.086
-0.094
-0.104
-0.114
-0.116
-0.109
-0.095
-0.075
-0.037
-0.007
-0.037
-0.14
-0.285
-0.469
-0.682
-0.905
-1.106
-1.242
-1.33
-1.33
-1.324
-1.279
-1.238
-1.189
-1.121
-1.052
-0.954
-0.876
-0.77
-0.676
-0.579
-0.481
-0.388
-0.314
-0.258
-0.191
-0.116
-0.045
0.007
0.048
0.077
0.1
0.119
0.135
0.135
0.139
0.142
0.154
0.159
0.159
0.165
0.179
0.194
0.185
0.184
0.186
0.194
0.198
0.194
0.18
0.165
0.165
0.165
0.163
0.15
0.147
0.151
0.158
0.15
0.135
0.129
0.139
0.15
0.147
0.145
0.156
0.172
0.184
0.185
0.194
0.201
0.201
0.195
0.19
0.204
0.215
0.21
0.185
0.172
0.179
0.185
0.182
0.179
0.189
0.193
0.194
0.189
0.195
0.2
0.193
0.181
0.174
0.175
0.172
0.168
0.146
0.114
0.094
0.087
0.096
0.084
0.068
0.065
0.069
0.051
0.021
0.009
0.011
0.016
0.015
0.011
0.006
0
-0.005
-0.004
0.011
0.011
-0.009
-0.03
-0.024
-0.005
0.003
0
-0.009
-0.009
0.005
0.019
0.019
0.009
0.005
0
-0.004
-0.001
0.001
0.007
0.011
0.011
0.018
0.036
0.049
0.048
0.048
0.052
0.054
0.05
0.048
0.052
0.054
0.05
0.044
0.033
0.028
0.026
0.025
0.029
0.034
0.039
0.031
0.024
0.025
0.031
0.029
0.021
0.019
0.021
0.015
-0.005
-0.011
-0.005
0.006
0.02
0.033
0.036
0.022
0.004
-0.011
0.003
0.024
0.018
-0.007
-0.024
-0.016
0.004
0.02
0.034
0.045
0.049
0.049
0.05
0.05
0.034
0.003
-0.007
0.004
0.016
0.026
0.031
0.03
0.025
0.013
0.01
0.029
0.02
-0.015
-0.03
-0.019
-0.013
-0.015
-0.011
-0.001
0.014
0.024
0.021
0.02
0.021
0.016
0.005
0.006
0.021
0.043
0.058
0.056
0.043
0.03
0.035
0.054
0.065
0.05
0.024
0.019
0.034
0.055
0.061
0.059
0.05
0.052
0.06
0.058
0.058
0.058
0.054
0.037
0.035
0.041
0.048
0.05
0.056
0.068
0.056
0.033
0.02
0.041
0.08
0.087
0.062
0.044
0.046
0.05
0.048
0.05
0.054
0.059
0.07
0.076
0.083
0.09
0.091
0.086
0.07
0.065
0.072
0.08
0.081
0.08
0.066
0.054
0.058
0.061
0.065
0.064
0.061
0.058
0.059
0.065
0.064
0.05
0.033
0.034
0.06
0.074
0.05
-0.001
-0.026
-0.015
0.004
0.015
0.016
0.019
0.021
0.019
0.028
0.051
0.05
0.022
0.007
0.011
0.018
0.005
-0.009
-0.011
-0.006
0
0.005
0.006
0
-0.005
-0.019
-0.039
-0.044
-0.033
-0.02
-0.021
-0.033
-0.054
-0.052
-0.02
0.015
0.01
-0.051
-0.155
-0.301
-0.494
-0.739
-0.979
-1.15
-1.281
-1.31
-1.326
-1.295
-1.256
-1.202
-1.136
-1.076
-0.98
-0.9
-0.802
-0.734
-0.652
-0.559
-0.458
-0.372
-0.32
-0.273
-0.231
-0.176
-0.119
-0.079
-0.061
-0.054
-0.049
-0.045
-0.041
-0.037
-0.033
-0.028
-0.015
-0.006
0.005
0.01
0.004
-0.003
0
0.011
0.022
0.033
0.033
0.026
0.02
0.02
0.031
0.035
0.034
0.025
0.02
0.021
0.033
0.039
0.044
0.058
0.074
0.085
0.085
0.087
0.092
0.099
0.095
0.092
0.109
0.134
0.152
0.154
0.156
0.155
0.161
0.169
0.169
0.163
0.165
0.172
0.172
0.174
0.179
0.188
0.189
0.186
0.181
0.176
0.18
0.195
0.2
0.185
0.171
0.165
0.169
0.17
0.164
0.163
0.159
0.158
0.151
0.144
0.135
0.125
0.119
0.109
0.105
0.107
0.105
0.095
0.091
0.1
0.101
0.101
0.085
0.076
0.079
0.081
0.081
0.072
0.065
0.066
0.075
0.079
0.079
0.079
0.08
0.079
0.076
0.087
0.087
0.084
0.09
0.107
0.126
0.136
0.135
0.126
0.125
0.126
0.135
0.141
0.145
0.142
0.14
0.136
0.121
0.119
0.122
0.13
0.133
0.134
0.135
0.14
0.144
0.14
0.141
0.133
0.124
0.125
0.13
0.13
0.128
0.124
0.122
0.125
0.124
0.114
0.101
0.098
0.096
0.089
0.076
0.062
0.046
0.039
0.05
0.062
0.051
0.028
0.007
0.001
0.005
0.003
-0.003
-0.007
-0.009
-0.018
-0.024
-0.021
-0.016
-0.019
-0.021
-0.014
-0.016
-0.024
-0.026
-0.033
-0.036
-0.039
-0.036
-0.041
-0.043
-0.041
-0.035
-0.033
-0.04
-0.046
-0.052
-0.052
-0.058
-0.061
-0.061
-0.062
-0.061
-0.056
-0.041
-0.036
-0.04
-0.043
-0.04
-0.036
-0.036
-0.036
-0.043
-0.054
-0.062
-0.059
-0.051
-0.051
-0.055
-0.056
-0.049
-0.044
-0.036
-0.044
-0.066
-0.087
-0.084
-0.05
-0.01
0.025
0.026
-0.024
-0.125
-0.281
-0.48
-0.721
-0.927
-1.099
-1.208
-1.25
-1.255
-1.226
-1.199
-1.137
-1.096
-1.025
-0.959
-0.884
-0.801
-0.729
-0.644
-0.561
-0.461
-0.371
-0.286
-0.231
-0.201
-0.17
-0.12
-0.065
-0.024
-0.001
0.014
0.021
0.018
0.019
0.021
0.035
0.045
0.055
0.052
0.058
0.075
0.092
0.106
0.115
0.116
0.114
0.12
0.126
0.142
0.155
0.152
0.147
0.165
0.203
0.229
0.244
0.253
0.279
0.309
0.328
0.34
0.347
0.362
0.375
0.394
0.412
0.432
0.431
0.415
0.424
0.438
0.455
0.471
0.48
0.475
0.465
0.477
0.485
0.494
0.487
0.49
0.501
0.511
0.516
0.511
0.511
0.507
0.514
0.505
0.49
0.469
0.449
0.441
0.424
0.422
0.409
0.409
0.395
0.381
0.364
0.345
0.347
0.347
0.354
0.344
0.346
0.344
0.341
0.341
0.329
0.316
0.301
0.309
0.307
0.316
0.31
0.312
0.315
0.309
0.306
0.304
0.316
0.319
0.324
0.33
0.335
0.339
0.341
0.345
0.336
0.333
0.324
0.323
0.326
0.331
0.334
0.33
0.333
0.323
0.315
0.311
0.315
0.324
0.33
0.343
0.346
0.349
0.345
0.339
0.33
0.316
0.305
0.287
0.286
0.281
0.275
0.265
0.258
0.246
0.221
0.2
0.186
0.184
0.176
0.165
0.149
0.134
0.129
0.122
0.119
0.111
0.105
0.091
0.083
0.084
0.084
0.079
0.07
0.065
0.064
0.068
0.065
0.056
0.049
0.043
0.041
0.036
0.039
0.043
0.043
0.041
0.043
0.037
0.033
0.034
0.034
0.033
0.03
0.029
0.03
0.028
0.013
0.004
0.019
0.056
0.085
0.071
-0.001
-0.136
-0.324
-0.573
-0.83
-1.056
-1.202
-1.281
-1.289
-1.265
-1.235
-1.189
-1.155
-1.094
-1.042
-0.963
-0.885
-0.799
-0.716
-0.639
-0.544
-0.453
-0.362
-0.301
-0.255
-0.206
-0.146
-0.084
-0.033
-0.007
-0.001
0.015
0.044
0.065
0.069
0.07
0.072
0.085
0.094
0.101
0.106
0.113
0.117
0.12
0.133
0.145
0.156
0.155
0.155
0.151
0.151
0.155
0.156
0.161
0.168
0.179
0.185
0.194
0.196
0.201
0.212
0.215
0.219
0.224
0.24
0.258
0.274
0.285
0.299
0.314
0.325
0.339
0.346
0.37
0.39
0.398
0.386
0.376
0.38
0.386
0.404
0.41
0.409
0.407
0.412
0.425
0.43
0.434
0.417
0.409
0.404
0.404
0.401
0.395
0.393
0.385
0.398
0.391
0.38
0.361
0.349
0.344
0.331
0.326
0.307
0.301
0.3
0.312
0.319
0.316
0.318
0.309
0.312
0.307
0.315
0.305
0.302
0.306
0.316
0.329
0.328
0.331
0.33
0.339
0.334
0.33
0.326
0.326
0.334
0.336
0.345
0.338
0.329
0.314
0.314
0.324
0.338
0.349
0.347
0.346
0.336
0.329
0.323
0.323
0.324
0.325
0.326
0.316
0.309
0.305
0.306
0.305
0.3
0.3
0.291
0.285
0.279
0.275
0.27
0.261
0.26
0.256
0.259
0.258
0.259
0.249
0.235
0.225
0.226
0.236
0.235
0.237
0.233
0.225
0.214
0.204
0.199
0.184
0.185
0.19
0.199
0.199
0.201
0.198
0.181
0.168
0.155
0.152
0.145
0.142
0.135
0.126
0.113
0.1
0.095
0.089
0.079
0.07
0.064
0.061
0.05
0.036
0.03
0.033
0.029
0.018
0.013
0.013
0.015
0.015
0.018
0.013
-0.003
-0.014
-0.018
-0.025
-0.039
-0.052
-0.062
-0.072
-0.083
-0.09
-0.092
-0.08
-0.046
-0.014
-0.009
-0.054
-0.15
-0.279
-0.469
-0.708
-0.958
-1.16
-1.286
-1.351
-1.346
-1.354
-1.312
-1.289
-1.235
-1.185
-1.126
-1.046
-0.971
-0.873
-0.792
-0.696
-0.619
-0.534
-0.453
-0.391
-0.335
-0.289
-0.229
-0.181
-0.145
-0.126
-0.115
-0.105
-0.09
-0.071
-0.055
-0.044
-0.043
-0.037
-0.033
-0.02
-0.001
0.009
0.006
0.001
0.006
0.013
0.021
0.026
0.036
0.048
0.059
0.066
0.072
0.077
0.081
0.085
0.094
0.101
0.109
0.116
0.129
0.14
0.145
0.15
0.155
0.169
0.185
0.196
0.211
0.223
0.244
0.274
0.301
0.318
0.324
0.333
0.338
0.351
0.357
0.369
0.375
0.374
0.381
0.38
0.385
0.371
0.364
0.354
0.347
0.345
0.334
0.328
0.314
0.31
0.3
0.294
0.281
0.268
0.258
0.25
0.255
0.246
0.245
0.241
0.241
0.234
0.223
0.214
0.205
0.21
0.21
0.21
0.198
0.188
0.179
0.175
0.17
0.171
0.181
0.185
0.182
0.18
0.177
0.176
0.179
0.185
0.188
0.189
0.18
0.174
0.169
0.169
0.172
0.177
0.182
0.181
0.185
0.189
0.188
0.18
0.177
0.175
0.175
0.181
0.184
0.186
0.185
0.179
0.168
0.155
0.147
0.142
0.149
0.15
0.144
0.131
0.121
0.11
0.09
0.074
0.056
0.036
0.028
0.022
0.02
0.009
-0.001
-0.01
-0.02
-0.031
-0.037
-0.04
-0.049
-0.061
-0.07
-0.069
-0.066
-0.072
-0.074
-0.07
-0.061
-0.065
-0.071
-0.072
-0.068
-0.064
-0.065
-0.065
-0.07
-0.071
-0.071
-0.072
-0.074
-0.08
-0.081
-0.084
-0.081
-0.084
-0.084
-0.084
-0.089
-0.098
-0.104
-0.104
-0.102
-0.098
-0.095
-0.099
-0.102
-0.105
-0.109
-0.115
-0.121
-0.126
-0.133
-0.134
-0.133
-0.13
-0.134
-0.133
-0.133
-0.131
-0.122
-0.114
-0.113
-0.119
-0.121
-0.129
-0.131
-0.133
-0.134
-0.135
-0.138
-0.138
-0.136
-0.134
-0.13
-0.106
-0.069
-0.044
-0.085
-0.177
-0.296
-0.466
-0.67
-0.914
-1.095
-1.244
-1.325
-1.325
-1.325
-1.272
-1.255
-1.19
-1.155
-1.096
-1.031
-0.958
-0.864
-0.792
-0.694
-0.619
-0.524
-0.445
-0.383
-0.33
-0.282
-0.229
-0.189
-0.151
-0.136
-0.125
-0.117
-0.107
-0.1
-0.094
-0.087
-0.083
-0.076
-0.07
-0.061
-0.052
-0.045
-0.039
-0.036
-0.033
-0.02
-0.01
-0.011
-0.011
0
0.02
0.036
0.05
0.059
0.065
0.074
0.086
0.11
0.134
0.164
0.177
0.188
0.201
0.22
0.229
0.233
0.244
0.255
0.279
0.286
0.297
0.304
0.305
0.306
0.304
0.31
0.309
0.318
0.319
0.33
0.34
0.344
0.345
0.338
0.338
0.328
0.328
0.324
0.324
0.311
0.296
0.29
0.276
0.261
0.239
0.233
0.223
0.209
0.188
0.179
0.176
0.171
0.169
0.166
0.164
0.159
0.158
0.156
0.158
0.159
0.155
0.155
0.152
0.151
0.152
0.155
0.159
0.159
0.161
0.16
0.164
0.171
0.179
0.18
0.182
0.189
0.188
0.191
0.188
0.18
0.179
0.18
0.185
0.174
0.17
0.164
0.158
0.147
0.138
0.128
0.115
0.109
0.099
0.094
0.087
0.081
0.07
0.061
0.056
0.05
0.051
0.043
0.035
0.039
0.048
0.049
0.04
0.037
0.031
0.02
0.007
-0.005
-0.005
-0.001
0
-0.009
-0.022
-0.028
-0.025
-0.022
-0.024
-0.024
-0.024
-0.026
-0.029
-0.034
-0.037
-0.046
-0.054
-0.06
-0.062
-0.061
-0.059
-0.058
-0.06
-0.062
-0.068
-0.072
-0.076
-0.074
-0.07
-0.068
-0.069
-0.061
-0.04
-0.001
0.03
0.007
-0.087
-0.224
-0.409
-0.627
-0.873
-1.054
-1.201
-1.281
-1.296
-1.294
-1.259
-1.239
-1.176
-1.139
-1.062
-0.988
-0.899
-0.797
-0.711
-0.609
-0.527
-0.438
-0.364
-0.292
-0.237
-0.189
-0.141
-0.101
-0.065
-0.039
-0.024
-0.009
0.006
0.019
0.033
0.04
0.045
0.05
0.06
0.077
0.092
0.1
0.098
0.099
0.109
0.124
0.134
0.14
0.14
0.142
0.146
0.152
0.161
0.175
0.189
0.195
0.199
0.199
0.204
0.214
0.221
0.231
0.24
0.251
0.255
0.26
0.264
0.27
0.28
0.284
0.295
0.302
0.319
0.333
0.336
0.336
0.345
0.365
0.369
0.375
0.372
0.379
0.383
0.385
0.389
0.378
0.381
0.381
0.385
0.376
0.378
0.379
0.375
0.374
0.357
0.356
0.35
0.355
0.346
0.346
0.351
0.352
0.355
0.352
0.361
0.35
0.345
0.335
0.338
0.349
0.357
0.37
0.367
0.371
0.366
0.367
0.367
0.364
0.364
0.362
0.375
0.379
0.39
0.39
0.391
0.395
0.415
0.432
0.434
0.432
0.424
0.42
0.414
0.416
0.43
0.438
0.441
0.43
0.429
0.424
0.425
0.424
0.417
0.415
0.41
0.42
0.424
0.429
0.42
0.404
0.391
0.381
0.383
0.374
0.372
0.364
0.352
0.347
0.351
0.365
0.361
0.367
0.361
0.367
0.364
0.366
0.367
0.36
0.37
0.372
0.378
0.364
0.361
0.355
0.352
0.352
0.343
0.331
0.309
0.305
0.296
0.295
0.28
0.263
0.246
0.235
0.23
0.215
0.205
0.19
0.18
0.176
0.169
0.156
0.149
0.15
0.144
0.135
0.12
0.111
0.105
0.104
0.104
0.101
0.096
0.094
0.094
0.091
0.085
0.08
0.074
0.065
0.054
0.055
0.069
0.089
0.122
0.151
0.133
0.046
-0.098
-0.292
-0.554
-0.811
-1.022
-1.183
-1.252
-1.281
-1.246
-1.224
-1.17
-1.124
-1.064
-0.995
-0.929
-0.836
-0.757
-0.664
-0.593
-0.506
-0.41
-0.316
-0.249
-0.2
-0.138
-0.075
-0.016
0.019
0.035
0.044
0.058
0.069
0.077
0.084
0.099
0.113
0.125
0.13
0.131
0.138
0.152
0.169
0.171
0.177
0.184
0.195
0.195
0.189
0.19
0.201
0.215
0.219
0.223
0.229
0.244
0.258
0.26
0.254
0.244
0.239
0.244
0.27
0.289
0.287
0.279
0.276
0.287
0.304
0.328
0.335
0.34
0.346
0.354
0.374
0.388
0.404
0.415
0.424
0.435
0.451
0.474
0.476
0.486
0.484
0.489
0.486
0.495
0.5
0.491
0.485
0.47
0.472
0.455
0.455
0.448
0.445
0.44
0.426
0.412
0.372
0.347
0.324
0.323
0.32
0.315
0.316
0.32
0.323
0.305
0.297
0.292
0.297
0.289
0.28
0.284
0.29
0.297
0.294
0.289
0.285
0.292
0.294
0.289
0.296
0.312
0.321
0.307
0.304
0.311
0.325
0.326
0.318
0.318
0.316
0.319
0.316
0.315
0.309
0.306
0.309
0.307
0.3
0.29
0.287
0.284
0.279
0.275
0.27
0.275
0.27
0.27
0.265
0.265
0.264
0.26
0.261
0.247
0.235
0.217
0.219
0.229
0.241
0.234
0.203
0.184
0.182
0.198
0.201
0.206
0.194
0.18
0.174
0.18
0.184
0.175
0.172
0.166
0.16
0.147
0.145
0.149
0.152
0.168
0.182
0.196
0.193
0.184
0.18
0.181
0.18
0.172
0.168
0.158
0.152
0.15
0.152
0.156
0.156
0.15
0.142
0.14
0.129
0.119
0.109
0.105
0.094
0.081
0.074
0.072
0.07
0.054
0.031
0.02
0.009
-0.003
-0.01
-0.015
-0.026
-0.035
-0.039
-0.041
-0.043
-0.044
-0.054
-0.072
-0.091
-0.1
-0.106
-0.107
-0.11
-0.11
-0.113
-0.12
-0.113
-0.091
-0.058
-0.033
-0.033
-0.098
-0.211
-0.361
-0.568
-0.789
-1.026
-1.181
-1.314
-1.365
-1.36
-1.353
-1.295
-1.268
-1.194
-1.147
-1.059
-0.976
-0.896
-0.812
-0.735
-0.629
-0.542
-0.454
-0.398
-0.356
-0.321
-0.266
-0.193
-0.135
-0.096
-0.081
-0.075
-0.08
-0.086
-0.08
-0.062
-0.05
-0.05
-0.054
-0.056
-0.054
-0.045
-0.036
-0.026
-0.019
-0.011
-0.001
0.007
0.016
0.024
0.033
0.045
0.06
0.079
0.091
0.1
0.109
0.116
0.121
0.133
0.164
0.2
0.233
0.24
0.251
0.265
0.282
0.296
0.295
0.302
0.306
0.319
0.321
0.316
0.316
0.315
0.319
0.312
0.316
0.31
0.305
0.291
0.28
0.273
0.265
0.26
0.259
0.269
0.268
0.263
0.255
0.259
0.264
0.256
0.249
0.235
0.228
0.214
0.204
0.193
0.193
0.191
0.184
0.172
0.163
0.154
0.142
0.14
0.141
0.133
0.121
0.119
0.133
0.14
0.129
0.115
0.111
0.11
0.105
0.098
0.087
0.072
0.055
0.041
0.037
0.051
0.07
0.076
0.077
0.077
0.083
0.086
0.09
0.104
0.111
0.114
0.105
0.105
0.111
0.125
0.134
0.142
0.15
0.15
0.154
0.151
0.155
0.152
0.146
0.15
0.16
0.17
0.16
0.154
0.15
0.15
0.141
0.13
0.124
0.122
0.124
0.124
0.122
0.115
0.106
0.094
0.085
0.083
0.085
0.086
0.087
0.092
0.092
0.089
0.084
0.087
0.091
0.095
0.101
0.102
0.102
0.095
0.087
0.09
0.099
0.11
0.113
0.114
0.114
0.115
0.12
0.122
0.126
0.131
0.141
0.15
0.155
0.15
0.144
0.142
0.142
0.144
0.136
0.136
0.135
0.13
0.128
0.122
0.111
0.1
0.104
0.107
0.117
0.117
0.116
0.113
0.11
0.115
0.114
0.105
0.09
0.089
0.087
0.079
0.06
0.039
0.025
0.014
0.01
0.007
-0.001
0.007
0.028
0.031
0.006
-0.021
-0.035
-0.043
-0.04
-0.037
-0.033
-0.031
-0.013
0.01
-0.011
-0.105
-0.244
-0.422
-0.656
-0.896
-1.096
-1.246
-1.32
-1.35
-1.326
-1.312
-1.262
-1.212
-1.156
-1.086
-1.021
-0.938
-0.858
-0.762
-0.686
-0.6
-0.507
-0.425
-0.36
-0.312
-0.253
-0.189
-0.121
-0.076
-0.059
-0.061
-0.061
-0.048
-0.031
-0.018
0.004
0.024
0.034
0.04
0.041
0.048
0.052
0.06
0.058
0.055
0.064
0.072
0.075
0.07
0.075
0.095
0.119
0.128
0.139
0.163
0.189
0.207
0.215
0.233
0.245
0.266
0.273
0.271
0.273
0.286
0.318
0.336
0.347
0.349
0.36
0.369
0.379
0.388
0.396
0.415
0.422
0.425
0.414
0.417
0.424
0.429
0.429
0.429
0.44
0.439
0.43
0.411
0.405
0.396
0.379
0.367
0.356
0.349
0.334
0.329
0.328
0.311
0.294
0.28
0.281
0.279
0.266
0.247
0.241
0.24
0.233
0.221
0.21
0.212
0.206
0.191
0.18
0.175
0.179
0.179
0.189
0.194
0.206
0.216
0.229
0.235
0.234
0.226
0.204
0.201
0.207
0.225
0.233
0.242
0.246
0.239
0.231
0.212
0.209
0.214
0.225
0.21
0.19
0.19
0.198
0.205
0.217
0.231
0.216
0.194
0.185
0.19
0.198
0.201
0.206
0.205
0.216
0.219
0.205
0.18
0.169
0.179
0.196
0.198
0.184
0.18
0.186
0.198
0.206
0.211
0.205
0.182
0.168
0.165
0.175
0.181
0.184
0.176
0.155
0.145
0.138
0.138
0.136
0.133
0.128
0.116
0.114
0.104
0.087
0.072
0.072
0.068
0.05
0.031
0.024
0.024
0.024
0.02
0.02
0.021
0.015
0.004
0.005
0.015
0.019
0.004
-0.013
-0.011
-0.015
-0.022
-0.026
-0.028
-0.024
-0.015
-0.001
0.006
-0.004
-0.021
-0.026
-0.015
-0.009
-0.009
-0.013
-0.019
-0.019
-0.011
-0.009
-0.014
-0.028
-0.039
-0.043
-0.049
-0.056
-0.066
-0.07
-0.065
-0.059
-0.054
-0.056
-0.056
-0.056
-0.056
-0.065
-0.074
-0.072
-0.065
-0.059
-0.062
-0.066
-0.071
-0.079
-0.089
-0.092
-0.089
-0.084
-0.084
-0.083
-0.072
-0.055
-0.025
0.011
0.02
-0.045
-0.172
-0.325
-0.53
-0.76
-1
-1.195
-1.301
-1.37
-1.347
-1.35
-1.296
-1.259
-1.2
-1.13
-1.056
-0.945
-0.863
-0.751
-0.675
-0.58
-0.499
-0.414
-0.34
-0.286
-0.231
-0.18
-0.122
-0.083
-0.061
-0.056
-0.052
-0.029
-0.006
0.01
0.018
0.031
0.049
0.061
0.076
0.095
0.114
0.133
0.144
0.155
0.168
0.182
0.189
0.188
0.194
0.203
0.217
0.228
0.241
0.251
0.258
0.269
0.278
0.284
0.284
0.296
0.306
0.314
0.32
0.324
0.335
0.339
0.351
0.355
0.362
0.365
0.375
0.395
0.405
0.422
0.42
0.422
0.417
0.43
0.432
0.43
0.429
0.415
0.414
0.399
0.403
0.395
0.39
0.38
0.371
0.371
0.36
0.352
0.333
0.324
0.309
0.295
0.284
0.275
0.27
0.258
0.253
0.24
0.235
0.226
0.225
0.215
0.203
0.188
0.176
0.168
0.146
0.135
0.14
0.15
0.151
0.142
0.126
0.11
0.106
0.107
0.109
0.106
0.095
0.089
0.083
0.08
0.069
0.052
0.043
0.045
0.058
0.065
0.059
0.037
0.014
0.009
0.015
0.021
0.03
0.044
0.036
0.015
0
0.005
0.019
0.03
0.034
0.022
0.018
0.024
0.03
0.022
0.013
0.009
0.004
0
0
0.007
0.016
0.022
0.02
0.018
0.018
0.018
0.014
0.006
0.003
0.005
0.001
-0.007
-0.014
-0.009
-0.005
-0.006
-0.007
-0.015
-0.031
-0.043
-0.043
-0.044
-0.052
-0.054
-0.055
-0.056
-0.059
-0.054
-0.052
-0.058
-0.062
-0.068
-0.07
-0.075
-0.079
-0.071
-0.056
-0.036
-0.01
0.025
0.03
-0.025
-0.134
-0.281
-0.49
-0.739
-0.961
-1.145
-1.25
-1.304
-1.279
-1.256
-1.205
-1.16
-1.114
-1.059
-1.004
-0.912
-0.839
-0.749
-0.675
-0.589
-0.502
-0.426
-0.355
-0.305
-0.25
-0.204
-0.151
-0.107
-0.076
-0.068
-0.064
-0.06
-0.056
-0.049
-0.036
-0.025
-0.016
-0.01
0.001
0.015
0.029
0.036
0.041
0.048
0.052
0.055
0.058
0.06
0.066
0.074
0.086
0.095
0.096
0.092
0.094
0.099
0.105
0.115
0.125
0.135
0.14
0.146
0.158
0.168
0.176
0.188
0.199
0.209
0.22
0.223
0.225
0.228
0.236
0.253
0.264
0.275
0.269
0.269
0.282
0.306
0.316
0.295
0.285
0.285
0.29
0.28
0.26
0.247
0.245
0.25
0.236
0.229
0.21
0.193
0.182
0.186
0.188
0.175
0.171
0.171
0.181
0.188
0.195
0.2
0.206
0.216
0.215
0.215
0.209
0.21
0.21
0.214
0.22
0.224
0.226
0.22
0.226
0.228
0.23
0.231
0.237
0.235
0.231
0.239
0.24
0.244
0.23
0.22
0.211
0.205
0.201
0.201
0.204
0.2
0.204
0.205
0.205
0.205
0.198
0.191
0.193
0.204
0.201
0.194
0.185
0.175
0.169
0.18
0.189
0.175
0.16
0.152
0.14
0.135
0.154
0.181
0.186
0.171
0.149
0.144
0.147
0.145
0.149
0.156
0.166
0.16
0.139
0.102
0.084
0.085
0.095
0.104
0.1
0.094
0.079
0.074
0.075
0.074
0.07
0.064
0.068
0.072
0.076
0.071
0.072
0.084
0.107
0.135
0.134
0.068
-0.056
-0.22
-0.438
-0.691
-0.909
-1.094
-1.195
-1.219
-1.216
-1.171
-1.139
-1.075
-1.026
-0.948
-0.861
-0.769
-0.669
-0.585
-0.494
-0.411
-0.325
-0.253
-0.186
-0.141
-0.105
-0.068
-0.022
0.021
0.045
0.052
0.055
0.064
0.07
0.087
0.104
0.12
0.124
0.115
0.104
0.105
0.11
0.107
0.113
0.116
0.129
0.144
0.163
0.181
0.191
0.207
0.219
0.23
0.22
0.215
0.221
0.234
0.247
0.26
0.275
0.269
0.268
0.26
0.266
0.268
0.264
0.259
0.249
0.247
0.237
0.234
0.229
0.22
0.217
0.22
0.225
0.224
0.224
0.215
0.214
0.21
0.211
0.203
0.193
0.184
0.175
0.174
0.165
0.158
0.145
0.136
0.125
0.11
0.095
0.085
0.077
0.068
0.051
0.041
0.04
0.04
0.037
0.043
0.05
0.059
0.07
0.071
0.069
0.065
0.066
0.069
0.076
0.084
0.094
0.1
0.101
0.11
0.115
0.119
0.114
0.111
0.109
0.111
0.117
0.117
0.117
0.113
0.124
0.139
0.142
0.129
0.115
0.115
0.116
0.12
0.117
0.121
0.121
0.128
0.135
0.139
0.141
0.14
0.144
0.134
0.128
0.129
0.134
0.131
0.125
0.126
0.135
0.141
0.135
0.126
0.115
0.105
0.099
0.1
0.102
0.102
0.101
0.099
0.096
0.083
0.072
0.072
0.075
0.075
0.074
0.07
0.068
0.062
0.065
0.071
0.075
0.064
0.058
0.056
0.061
0.062
0.061
0.066
0.059
0.048
0.04
0.045
0.051
0.05
0.045
0.037
0.034
0.03
0.034
0.041
0.048
0.051
0.051
0.056
0.045
0.036
0.028
0.024
0.028
0.035
0.043
0.044
0.046
0.044
0.045
0.05
0.051
0.05
0.05
0.051
0.05
0.05
0.048
0.05
0.049
0.049
0.049
0.05
0.055
0.056
0.048
0.039
0.043
0.046
0.046
0.048
0.052
0.066
0.077
0.071
0.054
0.044
0.044
0.049
0.055
0.056
0.046
0.035
0.031
0.039
0.048
0.056
0.058
0.052
0.05
0.058
0.058
0.05
0.041
0.035
0.044
0.055
0.065
0.062
0.064
0.068
0.072
0.07
0.066
0.068
0.068
0.062
0.056
0.062
0.065
0.068
0.068
0.079
0.092
0.091
0.086
0.079
0.066
0.06
0.07
0.089
0.096
0.092
0.09
0.09
0.089
0.089
0.089
0.095
0.1
0.098
0.095
0.098
0.111
0.119
0.125
0.122
0.129
0.136
0.147
0.156
0.165
0.179
0.186
0.195
0.2
0.206
0.207
0.212
0.231
0.244
0.247
0.234
0.223
0.22
0.229
0.236
0.241
0.24
0.228
0.219
0.215
0.214
0.21
0.204
0.204
0.201
0.201
0.199
0.196
0.195
0.193
0.186
0.17
0.163
0.155
0.155
0.152
0.15
0.147
0.146
0.149
0.146
0.164
0.203
0.249
0.237
0.145
0
-0.211
-0.474
-0.731
-0.963
-1.096
-1.195
-1.199
-1.181
-1.145
-1.077
-1.036
-0.958
-0.909
-0.829
-0.77
-0.688
-0.605
-0.515
-0.405
-0.31
-0.217
-0.156
-0.113
-0.069
-0.013
0.044
0.077
0.081
0.079
0.08
0.083
0.074
0.068
0.064
0.064
0.064
0.052
0.049
0.05
0.055
0.058
0.06
0.059
0.052
0.055
0.068
0.075
0.076
0.077
0.089
0.1
0.11
0.113
0.115
0.117
0.117
0.116
0.119
0.129
0.128
0.125
0.119
0.125
0.133
0.141
0.155
0.158
0.158
0.154
0.158
0.16
0.172
0.184
0.19
0.186
0.181
0.189
0.19
0.195
0.195
0.203
0.209
0.209
0.206
0.201
0.203
0.2
0.204
0.2
0.199
0.189
0.177
0.171
0.166
0.16
0.142
0.126
0.113
0.106
0.099
0.092
0.101
0.104
0.084
0.06
0.058
0.068
0.069
0.059
0.05
0.052
0.059
0.07
0.069
0.059
0.051
0.051
0.061
0.068
0.076
0.083
0.091
0.092
0.09
0.094
0.104
0.117
0.129
0.142
0.144
0.138
0.135
0.142
0.166
0.181
0.193
0.189
0.185
0.182
0.193
0.196
0.184
0.177
0.171
0.169
0.175
0.188
0.181
0.169
0.163
0.154
0.149
0.145
0.147
0.14
0.14
0.141
0.144
0.145
0.136
0.122
0.105
0.1
0.1
0.104
0.099
0.094
0.098
0.106
0.111
0.11
0.107
0.117
0.139
0.145
0.138
0.136
0.14
0.141
0.136
0.126
0.111
0.102
0.096
0.09
0.085
0.085
0.098
0.104
0.102
0.096
0.101
0.113
0.101
0.083
0.068
0.061
0.059
0.058
0.069
0.084
0.094
0.089
0.081
0.068
0.051
0.046
0.058
0.074
0.084
0.091
0.089
0.085
0.077
0.07
0.074
0.086
0.1
0.101
0.098
0.089
0.086
0.076
0.068
0.071
0.083
0.099
0.109
0.11
0.095
0.095
0.1
0.102
0.104
0.105
0.109
0.119
0.119
0.094
0.075
0.085
0.101
0.106
0.11
0.117
0.113
0.104
0.098
0.095
0.1
0.107
0.111
0.106
0.107
0.111
0.114
0.109
0.1
0.105
0.12
0.134
0.135
0.133
0.13
0.126
0.117
0.11
0.11
0.098
0.1
0.114
0.117
0.101
0.098
0.111
0.105
0.081
0.056
0.054
0.061
0.064
0.055
0.035
0.02
0.007
0.015
0.018
0.009
0
-0.013
-0.014
-0.013
-0.003
0.01
0.007
-0.006
-0.013
0.001
0.016
0.029
0.039
0.048
0.045
0.043
0.043
0.05
0.074
0.124
0.165
0.164
0.099
-0.029
-0.189
-0.403
-0.667
-0.919
-1.115
-1.245
-1.289
-1.302
-1.272
-1.255
-1.202
-1.149
-1.074
-0.984
-0.9
-0.809
-0.724
-0.615
-0.507
-0.411
-0.335
-0.26
-0.193
-0.141
-0.095
-0.043
0.015
0.052
0.058
0.051
0.068
0.095
0.106
0.094
0.08
0.077
0.096
0.121
0.12
0.105
0.1
0.116
0.138
0.163
0.17
0.151
0.129
0.116
0.135
0.168
0.198
0.184
0.159
0.151
0.158
0.172
0.182
0.185
0.172
0.176
0.191
0.198
0.195
0.191
0.198
0.209
0.236
0.249
0.24
0.228
0.233
0.241
0.251
0.268
0.29
0.314
0.306
0.285
0.27
0.281
0.299
0.304
0.307
0.306
0.307
0.3
0.292
0.286
0.287
0.294
0.29
0.286
0.279
0.279
0.28
0.274
0.264
0.246
0.25
0.249
0.234
0.22
0.211
0.203
0.201
0.212
0.21
0.196
0.181
0.181
0.186
0.191
0.195
0.193
0.2
0.205
0.215
0.216
0.217
0.214
0.211
0.219
0.223
0.224
0.207
0.205
0.203
0.205
0.207
0.209
0.211
0.211
0.219
0.214
0.216
0.214
0.207
0.201
0.203
0.214
0.225
0.236
0.235
0.235
0.233
0.234
0.235
0.24
0.247
0.251
0.255
0.253
0.25
0.244
0.24
0.237
0.239
0.235
0.226
0.221
0.215
0.205
0.193
0.181
0.174
0.161
0.155
0.144
0.126
0.114
0.109
0.11
0.095
0.074
0.055
0.055
0.075
0.095
0.099
0.083
0.06
0.04
0.029
0.035
0.052
0.064
0.062
0.056
0.051
0.055
0.05
0.034
0.022
0.022
0.033
0.035
0.037
0.04
0.046
0.041
0.036
0.031
0.028
0.029
0.031
0.031
0.03
0.025
0.018
0.013
0.021
0.03
0.033
0.031
0.026
0.015
0.004
-0.003
-0.004
0.007
0.015
0.007
-0.005
-0.01
-0.009
-0.01
-0.013
-0.02
-0.025
-0.028
-0.028
-0.021
-0.013
-0.011
-0.026
-0.043
-0.046
-0.043
-0.033
-0.026
-0.016
0.009
0.03
0.046
0.054
0.026
-0.045
-0.158
-0.331
-0.549
-0.797
-0.994
-1.15
-1.238
-1.249
-1.249
-1.2
-1.171
-1.103
-1.054
-0.985
-0.915
-0.84
-0.748
-0.685
-0.6
-0.516
-0.407
-0.324
-0.27
-0.236
-0.198
-0.142
-0.092
-0.049
-0.029
-0.024
-0.03
-0.033
-0.025
-0.006
0.015
0.028
0.037
0.054
0.075
0.094
0.106
0.113
0.119
0.126
0.135
0.142
0.152
0.164
0.18
0.196
0.214
0.234
0.24
0.249
0.26
0.286
0.305
0.312
0.321
0.335
0.355
0.362
0.367
0.361
0.357
0.362
0.384
0.406
0.404
0.407
0.41
0.419
0.424
0.424
0.43
0.434
0.45
0.449
0.451
0.449
0.455
0.463
0.456
0.464
0.455
0.458
0.451
0.449
0.429
0.411
0.398
0.384
0.384
0.37
0.36
0.33
0.307
0.302
0.309
0.311
0.299
0.29
0.27
0.264
0.247
0.237
0.235
0.24
0.235
0.22
0.22
0.214
0.207
0.2
0.2
0.206
0.21
0.223
0.23
0.24
0.235
0.233
0.234
0.237
0.245
0.251
0.258
0.259
0.268
0.274
0.269
0.26
0.255
0.259
0.254
0.255
0.253
0.247
0.244
0.25
0.258
0.256
0.258
0.25
0.242
0.226
0.215
0.217
0.23
0.236
0.219
0.211
0.207
0.209
0.201
0.196
0.201
0.203
0.209
0.201
0.2
0.189
0.188
0.19
0.188
0.179
0.17
0.171
0.169
0.16
0.139
0.117
0.099
0.08
0.066
0.056
0.044
0.033
0.028
0.025
0.011
-0.005
-0.016
-0.026
-0.034
-0.04
-0.052
-0.072
-0.079
-0.071
-0.051
-0.025
0.004
0.005
-0.051
-0.158
-0.292
-0.481
-0.7
-0.919
-1.091
-1.22
-1.259
-1.264
-1.228
-1.192
-1.156
-1.111
-1.064
-0.995
-0.93
-0.848
-0.774
-0.691
-0.606
-0.52
-0.443
-0.378
-0.316
-0.269
-0.217
-0.171
-0.13
-0.1
-0.081
-0.072
-0.069
-0.066
-0.06
-0.052
-0.048
-0.034
-0.025
-0.02
-0.019
-0.013
-0.005
0
0.007
0.013
0.018
0.024
0.03
0.033
0.035
0.039
0.048
0.06
0.066
0.077
0.086
0.095
0.101
0.114
0.119
0.124
0.133
0.149
0.163
0.169
0.172
0.174
0.18
0.186
0.193
0.196
0.204
0.212
0.221
0.234
0.24
0.244
0.239
0.231
0.229
0.234
0.245
0.24
0.234
0.228
0.224
0.221
0.212
0.204
0.195
0.199
0.198
0.195
0.189
0.174
0.168
0.16
0.16
0.146
0.134
0.13
0.129
0.131
0.139
0.151
0.155
0.16
0.16
0.166
0.168
0.172
0.175
0.171
0.179
0.182
0.19
0.186
0.191
0.194
0.196
0.201
0.207
0.214
0.21
0.207
0.206
0.217
0.228
0.229
0.225
0.215
0.217
0.219
0.228
0.225
0.223
0.22
0.229
0.234
0.228
0.225
0.221
0.22
0.214
0.212
0.207
0.195
0.184
0.177
0.184
0.186
0.177
0.169
0.17
0.17
0.163
0.152
0.144
0.146
0.144
0.14
0.136
0.13
0.133
0.135
0.142
0.141
0.141
0.141
0.142
0.151
0.158
0.158
0.147
0.146
0.154
0.158
0.156
0.158
0.17
0.172
0.171
0.168
0.176
0.179
0.174
0.171
0.165
0.158
0.144
0.139
0.133
0.135
0.131
0.121
0.114
0.117
0.125
0.125
0.129
0.133
0.13
0.128
0.128
0.131
0.125
0.12
0.105
0.109
0.121
0.126
0.126
0.129
0.133
0.138
0.14
0.14
0.14
0.135
0.135
0.141
0.147
0.159
0.164
0.16
0.158
0.156
0.155
0.156
0.158
0.154
0.152
0.145
0.139
0.131
0.125
0.116
0.113
0.113
0.109
0.105
0.099
0.1
0.104
0.1
0.102
0.099
0.098
0.084
0.081
0.094
0.114
0.139
0.16
0.151
0.072
-0.045
-0.199
-0.412
-0.646
-0.896
-1.08
-1.194
-1.241
-1.212
-1.2
-1.131
-1.099
-1.036
-0.989
-0.93
-0.843
-0.772
-0.681
-0.613
-0.517
-0.443
-0.372
-0.319
-0.269
-0.219
-0.179
-0.133
-0.101
-0.08
-0.07
-0.066
-0.068
-0.062
-0.046
-0.029
-0.011
0.001
0.011
0.022
0.037
0.049
0.065
0.083
0.094
0.102
0.115
0.126
0.138
0.16
0.179
0.195
0.199
0.209
0.22
0.228
0.225
0.217
0.22
0.217
0.219
0.212
0.209
0.207
0.211
0.221
0.231
0.254
0.254
0.254
0.247
0.253
0.259
0.26
0.27
0.273
0.28
0.275
0.28
0.282
0.284
0.284
0.281
0.28
0.273
0.278
0.271
0.273
0.274
0.28
0.281
0.274
0.264
0.255
0.258
0.253
0.247
0.23
0.211
0.195
0.186
0.19
0.19
0.184
0.163
0.142
0.124
0.111
0.105
0.105
0.105
0.101
0.1
0.101
0.102
0.1
0.087
0.079
0.068
0.062
0.07
0.087
0.102
0.101
0.095
0.083
0.085
0.094
0.106
0.115
0.115
0.124
0.139
0.159
0.158
0.15
0.15
0.159
0.163
0.169
0.177
0.174
0.166
0.149
0.149
0.158
0.171
0.17
0.159
0.149
0.141
0.144
0.14
0.138
0.131
0.13
0.135
0.139
0.141
0.138
0.138
0.133
0.124
0.111
0.109
0.116
0.119
0.119
0.116
0.113
0.099
0.092
0.099
0.111
0.111
0.102
0.095
0.092
0.095
0.1
0.11
0.114
0.115
0.109
0.098
0.085
0.076
0.08
0.086
0.083
0.077
0.075
0.077
0.074
0.075
0.072
0.069
0.065
0.066
0.075
0.074
0.077
0.076
0.077
0.092
0.104
0.104
0.091
0.086
0.081
0.087
0.09
0.086
0.083
0.077
0.068
0.07
0.092
0.1
0.083
0.06
0.059
0.068
0.066
0.06
0.056
0.06
0.065
0.071
0.069
0.062
0.054
0.05
0.052
0.058
0.058
0.05
0.049
0.059
0.072
0.079
0.077
0.072
0.064
0.071
0.077
0.072
0.068
0.068
0.065
0.065
0.072
0.08
0.085
0.083
0.083
0.091
0.095
0.091
0.087
0.087
0.094
0.095
0.077
0.064
0.074
0.099
0.114
0.11
0.094
0.072
0.048
0.022
0.01
0.025
0.046
0.058
0.052
0.055
0.068
0.08
0.085
0.092
0.101
0.058
-0.05
-0.195
-0.412
-0.662
-0.922
-1.109
-1.228
-1.294
-1.276
-1.281
-1.224
-1.196
-1.141
-1.083
-1.01
-0.905
-0.82
-0.716
-0.649
-0.556
-0.461
-0.354
-0.268
-0.212
-0.163
-0.107
-0.046
-0.003
0.015
0.018
0.028
0.037
0.033
0.024
0.029
0.05
0.074
0.083
0.075
0.066
0.071
0.08
0.083
0.091
0.099
0.1
0.105
0.113
0.116
0.114
0.126
0.138
0.122
0.105
0.116
0.141
0.155
0.168
0.17
0.171
0.179
0.19
0.196
0.198
0.198
0.188
0.191
0.199
0.219
0.233
0.241
0.236
0.217
0.212
0.22
0.241
0.235
0.22
0.216
0.22
0.229
0.235
0.24
0.223
0.21
0.204
0.217
0.233
0.242
0.24
0.221
0.204
0.189
0.186
0.18
0.174
0.161
0.15
0.145
0.147
0.151
0.149
0.149
0.142
0.13
0.11
0.1
0.105
0.11
0.107
0.094
0.083
0.083
0.085
0.084
0.085
0.091
0.096
0.092
0.075
0.069
0.076
0.08
0.087
0.087
0.077
0.069
0.075
0.085
0.102
0.12
0.116
0.105
0.09
0.085
0.098
0.122
0.145
0.156
0.16
0.161
0.169
0.169
0.172
0.171
0.168
0.164
0.164
0.18
0.193
0.201
0.191
0.186
0.185
0.179
0.17
0.16
0.165
0.17
0.166
0.147
0.142
0.14
0.125
0.114
0.114
0.125
0.131
0.131
0.126
0.124
0.128
0.135
0.136
0.139
0.144
0.142
0.144
0.144
0.142
0.142
0.15
0.158
0.15
0.149
0.155
0.164
0.17
0.176
0.182
0.189
0.185
0.174
0.165
0.163
0.155
0.149
0.15
0.158
0.154
0.15
0.146
0.145
0.146
0.142
0.146
0.139
0.133
0.128
0.131
0.139
0.147
0.144
0.121
0.113
0.11
0.119
0.12
0.12
0.117
0.124
0.131
0.14
0.154
0.158
0.158
0.149
0.156
0.165
0.168
0.174
0.18
0.184
0.17
0.16
0.152
0.152
0.144
0.125
0.113
0.104
0.094
0.079
0.071
0.07
0.07
0.058
0.037
0.025
0.018
0.013
0.015
0.019
0.018
0.018
0.015
0.011
0.004
-0.004
-0.005
-0.011
-0.02
-0.03
-0.035
-0.034
-0.03
-0.026
-0.025
-0.028
-0.024
-0.019
-0.021
-0.029
-0.039
-0.043
-0.045
-0.048
-0.052
-0.06
-0.072
-0.06
-0.024
0.015
0
-0.087
-0.211
-0.39
-0.606
-0.851
-1.06
-1.189
-1.282
-1.266
-1.262
-1.215
-1.189
-1.141
-1.064
-0.995
-0.9
-0.829
-0.72
-0.631
-0.521
-0.419
-0.326
-0.241
-0.17
-0.105
-0.046
0.003
0.025
0.044
0.083
0.111
0.115
0.122
0.135
0.125
0.111
0.115
0.129
0.138
0.14
0.14
0.144
0.144
0.142
0.145
0.152
0.164
0.172
0.18
0.185
0.19
0.191
0.191
0.194
0.199
0.21
0.207
0.211
0.212
0.217
0.217
0.212
0.211
0.209
0.211
0.212
0.23
0.246
0.271
0.29
0.3
0.304
0.302
0.309
0.307
0.314
0.31
0.315
0.318
0.312
0.314
0.309
0.311
0.297
0.296
0.295
0.295
0.282
0.265
0.261
0.258
0.26
0.256
0.256
0.244
0.23
0.216
0.2
0.188
0.176
0.176
0.174
0.169
0.161
0.158
0.152
0.152
0.152
0.134
0.124
0.128
0.133
0.131
0.13
0.13
0.136
0.144
0.142
0.14
0.141
0.14
0.133
0.124
0.128
0.131
0.128
0.13
0.134
0.134
0.13
0.135
0.141
0.155
0.164
0.166
0.165
0.172
0.179
0.172
0.171
0.175
0.19
0.195
0.205
0.204
0.19
0.169
0.152
0.155
0.16
0.172
0.176
0.181
0.18
0.172
0.176
0.179
0.181
0.175
0.172
0.169
0.161
0.155
0.154
0.165
0.17
0.164
0.14
0.13
0.133
0.133
0.12
0.109
0.106
0.11
0.121
0.129
0.131
0.124
0.115
0.111
0.113
0.113
0.111
0.111
0.106
0.111
0.114
0.1
0.092
0.101
0.115
0.12
0.129
0.14
0.144
0.134
0.121
0.114
0.105
0.102
0.104
0.094
0.07
0.044
0.033
0.02
0.009
0.003
-0.004
-0.01
-0.018
-0.015
-0.016
-0.019
-0.03
-0.045
-0.055
-0.062
-0.066
-0.07
-0.075
-0.085
-0.095
-0.098
-0.105
-0.115
-0.129
-0.129
-0.128
-0.117
-0.087
-0.048
-0.033
-0.087
-0.195
-0.335
-0.51
-0.736
-0.951
-1.117
-1.254
-1.294
-1.314
-1.268
-1.234
-1.183
-1.131
-1.09
-1.024
-0.961
-0.859
-0.771
-0.672
-0.6
-0.547
-0.486
-0.416
-0.344
-0.292
-0.244
-0.196
-0.151
-0.119
-0.105
-0.102
-0.101
-0.092
-0.083
-0.076
-0.076
-0.07
-0.059
-0.048
-0.044
-0.044
-0.041
-0.039
-0.033
-0.019
0
0.009
0.021
0.033
0.037
0.039
0.04
0.051
0.064
0.079
0.091
0.105
0.106
0.11
0.121
0.141
0.16
0.172
0.19
0.203
0.221
0.23
0.25
0.27
0.29
0.305
0.311
0.324
0.324
0.334
0.338
0.355
0.367
0.374
0.38
